39552
39808
39856
39712
39616
39440
39264
39184
39040
38800
38704
38592
38544
40224
46352
49456
39056
36576
38016
39008
39568
39696
39888
39936
40128
40256
40448
40592
40768
40832
41040
41088
41232
41472
41600
41808
42160
42384
42592
42624
42704
42624
42240
41824
41392
41088
40880
40720
40768
40880
41104
41216
41216
40960
40912
40768
40752
40624
40544
40448
40384
40160
40080
39936
39952
39840
39840
39840
39952
40080
40128
40160
40320
40368
40384
40320
40416
40352
40352
40368
40416
40400
40528
40480
40464
40384
40352
40272
40096
40032
40064
39904
39824
39696
39696
39840
40240
40192
39936
39648
39632
39552
39792
40016
40096
40368
40528
40496
40896
44384
50688
47104
38080
38240
39696
40336
40592
40656
40736
40704
40720
40752
40768
41008
41152
41296
41520
41856
42240
42624
43152
43520
44176
44704
45184
45344
45344
44896
44336
43648
43008
42448
42016
41472
41280
40864
40832
40736
40752
40720
40832
40640
40528
40352
40320
40272
40208
40112
40064
40016
39968
39856
39808
40144
40672
40656
40736
40544
40416
40272
40224
40160
40096
40144
40128
40192
40080
40144
40016
39872
39760
39680
39952
40208
40416
40272
40064
39936
40064
40032
40064
40080
40144
40112
40400
42976
49312
48912
37376
36576
38144
39168
39728
39952
40208
40320
40240
40128
40096
40144
40400
40528
40736
40912
41168
41376
41792
42240
42704
43104
43408
43552
43488
43264
42592
41984
41360
40720
40384
40128
39968
39856
39840
39744
39680
39616
39632
39584
39568
39568
39680
39680
39728
39712
39696
39680
39744
39648
39680
39632
39632
39616
39616
39616
39616
39616
39680
39680
39648
39584
39584
39648
39632
39568
39632
39584
39472
39424
39600
39696
39856
39696
39552
39392
39376
39344
39360
39424
39424
39424
39760
43776
50656
46304
36960
37120
38272
39168
39520
39808
39936
39856
39952
40016
40128
40240
40320
40464
40704
40864
41184
41440
41856
41984
42448
42752
43104
43296
43184
42688
42112
41344
40736
40240
39952
39712
39600
39520
39456
39360
39360
39296
39312
39296
39232
39184
39200
39136
39200
39232
39296
39280
39312
39296
39360
39312
39344
39360
39376
39424
39392
39360
39424
39344
39488
39568
39552
39616
39648
39632
39648
39568
39680
39632
39680
39568
39552
39568
39824
39888
40032
39936
39776
39680
39680
39600
39680
39632
39728
39728
39904
43424
50176
47632
37680
37344
38400
39248
39568
39904
39984
39984
40160
40224
40368
40448
40592
40704
40912
41088
41376
41632
42016
42400
42960
43360
43664
43776
43648
43296
42752
41904
41216
40608
40256
39936
39824
39712
39680
39568
39552
39424
39520
39360
39424
39504
39568
39520
39552
39552
39632
39584
39584
39552
39584
39504
39504
39456
39520
39392
39440
39376
39376
39344
39296
39232
39328
39296
39328
39296
39344
39344
39424
39440
39552
39424
39456
39456
39552
39520
39680
39808
40016
40080
39984
39936
39936
39904
39984
39984
40096
40096
40192
40720
45024
51616
46176
38112
38208
39168
39776
39712
40064
40112
40192
40256
40288
40352
40416
40480
40720
40800
41040
41184
41392
41616
41888
42112
42448
42704
42752
42528
42112
41440
40704
39968
39504
39184
39008
38864
38832
38704
38656
38528
38448
38448
38400
38416
38560
38656
38560
38608
38592
38448
38528
38496
38576
38528
38528
38496
38496
38480
38864
38992
39184
39200
39248
39216
39232
39232
39296
39216
39264
39232
39168
39072
39088
39056
39088
38960
38976
39168
39216
39232
39040
38848
38768
38720
38736
38784
38832
38832
38992
39136
42432
49120
47376
36912
36656
37888
38784
39168
39424
39520
39696
39696
39760
39680
39808
39776
39984
40096
40144
40272
40752
41088
41424
41792
42240
42432
42640
42576
42144
41376
40736
39936
39296
38784
38496
38224
38192
38064
38048
37936
37984
38048
38016
37952
38016
38160
38096
38048
38240
38288
38400
38272
38352
38352
38320
38304
38320
38400
38432
38352
38400
38336
38320
38240
38272
38272
38304
38320
38288
38224
38304
38480
38656
38688
38528
38336
38400
38368
38416
38432
38448
38480
38528
39248
44176
49888
41104
34816
35920
37072
37968
38288
38656
38800
38816
38832
38912
38976
39200
39424
39648
39856
40064
40288
40704
41088
41520
41904
42304
42400
42592
42400
41952
41216
40528
39888
39472
39168
38992
38688
38528
38448
38432
38304
38224
38160
38064
38048
38160
38224
38144
38016
38096
37856
37696
37632
37632
37584
37584
37648
37568
37664
37760
37776
37920
37888
37808
37968
37936
38016
38032
38032
38144
38080
38160
38144
38176
38160
38256
38272
38288
38288
38400
38368
38464
38432
38544
38672
38912
38928
38656
38592
38560
38464
38464
38400
38400
38352
38352
38400
41728
48288
46912
36400
35840
36752
37648
37904
38080
38032
38032
38064
38144
38208
38464
38656
38816
38944
39296
39424
39744
40160
40656
41088
41424
41792
41984
41984
41600
41136
40640
40048
39552
39184
38992
38880
38976
38960
38912
38880
38864
38992
38960
38944
38960
39008
39040
38992
38992
38992
38976
38912
38944
38800
38912
38816
38864
38752
38784
38784
38800
38624
38704
38784
38784
38752
38800
38832
38960
38992
39040
39040
39184
39232
39248
39200
39264
39296
39376
39392
39520
39456
39456
39424
39456
39680
39936
40032
40016
39840
39840
39824
39808
39728
39712
39680
39760
39808
41888
48000
50576
39984
38176
39168
40240
40960
41376
41728
41904
41936
42000
41904
41776
41600
41856
41856
41904
42000
42240
42544
43056
43232
43776
44112
44512
44576
44416
44000
43424
42752
42112
41600
41264
40864
40624
40528
40400
40224
40192
40144
40064
39904
40016
40048
40000
39936
39872
39872
39888
40000
40080
40064
40000
40704
40848
40864
40976
40784
40880
40832
40784
40784
40736
40864
41024
40960
40960
40880
40896
40896
40960
40848
40816
40720
40656
40832
40960
40992
40848
40624
40448
40336
40448
40496
40528
40448
40448
40448
42384
48512
50976
39392
37136
38576
39712
40192
40336
40592
40640
40656
40736
40784
40880
40960
41088
41248
41424
41632
41904
42192
42640
43056
43392
43664
43872
43776
43584
43088
42496
41776
41088
40704
40336
40032
39936
39808
39712
39648
39632
39584
39600
39552
39632
39728
39728
39648
39600
39632
39616
39568
39616
39424
39456
39056
39200
38912
38592
38112
37584
37120
36784
36736
37024
37280
37712
37968
38064
38272
38480
38656
38672
38560
38560
38464
38816
39104
39376
39456
39440
39392
39424
39440
39488
39424
39424
39472
39504
43136
49920
47232
37392
37120
38320
39216
39680
39824
39936
39936
39936
39984
40064
40160
40320
40480
40656
41008
41312
41632
42000
42368
42800
43136
43360
43456
43440
43136
42544
41904
41264
40704
40336
40064
39936
39808
39824
39808
39632
39552
39760
39680
39712
39760
39936
39888
39936
39904
39936
39968
40016
39888
39904
39856
39856
39936
39856
39808
39808
39824
39840
39840
39936
39808
39808
39760
39936
39872
39808
39808
39680
39776
39936
40096
40112
39872
39808
39728
39728
39712
39760
39760
39744
39696
41168
46752
49968
39760
36896
38096
38992
39584
39808
39904
40032
40064
40128
40192
40288
40416
40576
40704
40960
41152
41424
41696
42112
42496
42848
43136
43264
43280
43104
42544
41936
41280
40704
40272
40000
39824
39696
39648
39600
39552
39552
39552
39520
39568
39648
39680
39680
39680
39680
39680
39616
39616
39632
39568
39552
39504
39472
39504
39456
39424
39424
39376
39424
39344
39376
39376
39456
39440
39520
39520
39552
39424
39424
39376
39616
39728
39760
39648
39488
39488
39488
39200
39216
39120
39168
39248
39344
42496
48832
46848
36448
36288
37712
38704
39104
39296
39488
39456
39552
39600
39680
39728
39808
39984
40128
40240
40448
40752
41120
41536
41984
42368
42592
42768
42688
42448
41856
41152
40448
39824
39344
38992
38864
38816
38912
38784
38672
39056
39328
39424
39520
39600
39728
39696
39776
39744
39712
39632
39712
39728
39680
39568
39696
39712
39680
39680
39680
39680
39600
39520
39456
39312
39216
39184
39328
39392
39424
39440
39184
38912
38864
38912
38832
38704
38832
38880
38992
40992
47312
49152
37136
35296
36992
38144
38816
39072
39344
39424
39488
39568
39712
39744
39840
39904
40016
40192
40336
40736
41088
41472
41904
42256
42624
42768
42768
42432
41824
41168
40496
39952
39488
39312
39168
39056
38992
38960
38800
38848
38864
38784
38736
38864
38928
38864
38960
38912
38944
38960
38944
38976
38992
38928
38992
38976
38960
38960
38960
39040
39008
39008
39088
39072
39056
38992
39040
38928
38912
38800
38832
38784
39056
39232
39376
39216
39024
38912
38816
38704
38784
38720
38752
38832
38864
41664
48400
47872
36624
35920
37200
38144
38576
38800
38976
38928
38848
38928
38992
39104
39536
39808
39984
40192
40448
40704
41088
41488
41856
42144
42240
42368
42336
41856
41216
40400
39808
39264
38944
38800
38656
38656
38464
38432
38400
38432
38496
38480
38624
38720
38736
38704
38688
38704
38688
38656
38672
38656
38608
38672
38752
38720
38784
38784
38800
38784
38784
38752
38736
38736
38784
38784
38864
38928
38944
38944
38912
38928
38928
38928
38960
38944
38976
39008
39072
39040
39056
39088
39120
39088
39168
39344
39344
39440
39424
39184
39136
39168
39104
39040
39056
39008
39136
39104
39968
45232
50480
41360
36480
37520
38496
39216
39424
39552
39680
39632
39712
39808
39824
39872
39968
40080
40320
40464
40784
41152
41488
41872
42272
42512
42624
42688
42640
42240
41648
41024
40496
40080
39808
39584
39312
39360
39312
39184
39120
39168
39184
39184
39296
39296
39344
39344
39424
39376
39456
39504
39520
39504
39440
39344
39360
39392
39376
39312
39168
39168
39216
39248
39200
39088
39200
39184
39136
39216
39328
39328
39296
39424
39392
39424
39424
39488
39456
39456
39472
39504
39552
39504
39472
39488
39488
39440
39232
39296
39328
39296
39216
39440
39584
39696
39600
39424
39248
39296
39328
39296
39296
39376
39312
39424
40032
44752
50576
42448
36560
37472
38528
39328
39584
39808
39776
39760
39856
39888
39984
40192
40304
40480
40624
40832
41056
41216
41520
41856
42288
42592
42832
42928
42816
42448
41872
41216
40624
40064
39808
39680
39776
39856
39856
39952
39904
39872
39840
39680
39616
39904
40000
39840
39808
39728
39728
39648
39680
39648
39584
39568
39504
39472
39376
39648
39424
39328
39344
39216
39296
39264
39184
39248
39856
39936
39936
40208
40400
40336
40448
40448
40192
40192
40144
40192
40256
40240
40144
40192
40192
40192
40128
40000
39952
39888
40080
40224
40272
40112
40080
39952
39872
39808
39840
39840
39840
39840
39936
42640
49056
49088
36944
36320
37936
38912
39376
39616
39856
39872
39744
39776
39760
39808
39856
39984
40192
40352
40544
40848
41168
41536
42000
42320
42592
42784
42848
42656
42016
41440
40880
40368
39936
39632
39456
39344
39248
39136
39072
39072
39088
39056
39072
39104
39168
39200
39200
39248
39296
39264
39312
39440
39392
39472
39360
39424
39376
39376
39392
39376
39376
39424
39424
39552
39472
39360
39280
39248
39200
39200
39200
39200
39232
39168
39168
39248
39184
39216
39200
39120
39040
38944
38912
38944
38912
38912
38784
38784
38576
38416
38352
38560
38800
38944
38912
38752
38560
38592
38576
38656
38656
38624
38688
38720
39104
43600
50352
44464
36240
36864
37936
38992
39328
39584
39680
39760
39760
39936
39984
40032
40144
40352
40528
40624
40752
41088
41376
41792
42240
42624
42880
43024
43008
42752
42160
41552
40896
40416
39984
39808
39680
39680
39584
39504
39504
39504
39504
39552
39552
39632
39680
39648
39680
39680
39744
39760
39728
39744
39680
39680
39616
39616
39584
39680
39424
39296
39296
39296
39264
39264
39264
39216
39184
39296
39184
39184
39232
39264
39232
39264
39264
39312
39296
39328
39296
39312
39328
39424
39424
39440
39424
39504
39456
39504
39472
39712
39776
39936
39712
39600
39552
39552
39568
39552
39552
39584
39600
39792
43184
49696
47280
37392
37248
38528
39440
39744
39872
39936
39904
39888
39952
40112
40192
40320
40336
40528
40736
41088
41344
41600
42000
42368
42672
42912
43136
43136
42832
42320
41664
40992
40448
40128
39888
39728
39584
39552
39424
39392
39312
39392
39312
39360
39424
39552
39584
39616
39584
39600
39584
39712
39680
39744
39696
39728
39680
39696
39728
39744
39632
39600
39552
39552
39504
39552
39488
39552
39584
39600
39552
39552
39520
39584
39616
39680
39696
39760
39728
39728
39680
39728
39936
40080
40128
39936
39808
39744
39712
39728
39824
39776
39696
39680
40128
44544
50720
44288
36544
37392
38624
39504
39712
40112
40320
40320
40336
40368
40272
40464
40576
40832
40992
41264
41360
41728
41984
42368
42816
43344
43600
43728
43648
43264
42576
41744
41040
40496
40112
39872
39696
39632
39504
39472
39376
39392
39360
39296
39136
39216
39232
39248
39264
39600
39760
39792
39744
39824
39584
39600
39568
39552
39680
40128
40576
40656
40512
40384
40480
40656
40448
40320
40208
40256
40320
40320
40288
40208
40192
40384
40512
40512
40304
40160
40112
40080
40064
40032
39952
40064
40064
41104
46352
51328
40880
35744
37424
38720
39504
39744
39936
40208
40192
40320
40416
40416
40448
40544
40704
40864
41024
41280
41568
41984
42384
42768
43088
43392
43472
43344
43008
42416
41616
41088
40672
40320
40000
39936
39824
39824
39648
39536
39456
39424
39424
39424
39296
39424
39344
39344
39392
39424
39392
39392
39264
39296
39216
39200
39120
39072
38944
38992
38912
38992
38912
38928
38928
38912
38864
38720
38464
38528
38480
38400
38352
38400
38336
38592
38704
38864
38704
38784
38832
39248
39440
39552
39616
39680
39648
39760
42896
49344
48256
36864
36480
37760
38672
39104
39360
39504
39392
39344
39376
39296
39232
39344
39632
39824
39888
39936
40128
40464
40752
41008
41264
41472
41504
41408
40832
40336
39680
39136
38672
38272
38032
37776
37600
37456
37472
37680
37856
38016
37952
37888
37920
38080
38464
38576
38688
38880
38864
39040
38672
38224
38272
38288
38176
38064
38