Time Stamp	ECG LL-RA	ECG LL-RA Filtered	Heart Rate
265294.9829101563	-1.21344640415268	-0.01014945374251134	-1
265304.0771484375	-1.235587744186848	-0.02194242727238558	-1
265313.1713867188	-1.235587744186848	-0.03481564600581119	-1
265322.265625	-1.238761095852983	-0.02895385342817706	-1
265331.3598632813	-1.239915041913395	-0.03021249510354439	-1
265340.4541015625	-1.239915041913395	-0.03057390059563249	-1
265349.5483398438	-1.239915041913395	-0.02510483847209025	-1
265358.642578125	-1.232847122293368	-0.0231737129480775	-1
265367.7368164063	-1.234794406270314	-0.01555551987721547	-1
265376.8310546875	-1.234794406270314	-0.01920102538362244	-1
265385.9252929688	-1.234794406270314	-0.01673058035546702	-1
265395.01953125	-1.234794406270314	-0.01449808342382249	-1
265404.1137695313	-1.222100999605775	-0.009013316076902866	-1
265413.2080078125	-1.220370080515156	0.003166823691144051	-1
265422.3022460938	-1.220370080515156	0.03631773515938364	-1
265431.396484375	-1.220370080515156	0.08159568851523313	-1
265440.4907226563	-1.205873633131222	0.06821581759878702	-1
265449.5849609375	-1.205873633131222	0.07413544846055606	-1
265458.6791992188	-1.199887537942831	0.07873847652797961	-1
265467.7734375	-1.207820917108168	0.06198493786349441	-1
265476.8676757813	-1.207820917108168	0.06496308926896546	-1
265485.9619140625	-1.207820917108168	0.05221313404277275	-1
265495.0561523438	-1.207820917108168	0.05676381184312355	-1
265504.150390625	-1.20435907892693	0.04986110602853874	-1
265513.2446289063	-1.192819618322804	0.05625788233197656	-1
265522.3388671875	-1.197723889079558	0.05720054145237641	-1
265531.4331054688	-1.199382686541401	0.04200556662502684	-1
265540.52734375	-1.1970026727918	0.04552752918067991	-1
265549.6215820313	-1.20522453847224	0.03383653133058805	-1
265558.7158203125	-1.196569943019145	0.03269108543558866	-1
265567.8100585938	-1.199382686541401	0.03266464338331536	-1
265576.904296875	-1.192242645292598	0.03011872736022685	-1
265585.9985351563	-1.198949956768746	0.02648925992407316	-1
265595.0927734375	-1.191954158777494	0.0221887387082865	-1
265604.1870117188	-1.197796010708333	0.0199181443220028	-1
265613.28125	-1.199526929798952	0.0113550354150028	-1
265622.3754882813	-1.193252348095459	0.01036563924195331	-1
265631.4697265625	-1.200752997488141	0.008935409876437636	-1
265640.5639648438	-1.200103902829159	-0.002028307284967951	-1
265649.658203125	-1.202844524722639	-0.003002142609368658	-1
265658.7524414063	-1.200969362374468	-0.005992056189522795	-1
265667.8466796875	-1.206955457562859	-0.01259571382726277	-1
265676.9409179688	-1.200392389344262	-0.0121958495363109	-1
265686.03515625	-1.204503322184482	-0.01488965800146161	-1
265695.1293945313	-1.206522727790204	-0.01926722823965969	-1
265704.2236328125	-1.213013674380025	-0.02805980734226341	-1
265713.3178710938	-1.206739092676532	-0.02697497380070836	-1
265722.412109375	-1.21431186369799	-0.0296066402546345	-1
265731.5063476563	-1.216763999076366	-0.03768567428665456	-1
265740.6005859375	-1.213374282523904	-0.03695892006982623	-1
265749.6948242188	-1.223615553810067	-0.04048330810266949	-1
265758.7890625	-1.213518525781456	-0.04394636020272222	-1
265767.8833007813	-1.212364579721043	-0.0348578835732364	-1
265776.9775390625	-1.203782105896724	-0.03287038800067062	-1
265786.0717773438	-1.213157917637577	-0.03671592166545134	-1
265795.166015625	-1.205080295214688	-0.03758955235103529	-1
265804.2602539063	-1.205945754759998	-0.03628295460194998	-1
265813.3544921875	-1.208542133395926	-0.03744125432604278	-1
265822.4487304688	-1.222028877976999	-0.05197542707052327	-1
265831.54296875	-1.240203528428499	-0.06542018384946202	-1
265840.6372070313	-1.245756893844234	-0.07891617559208761	-1
265849.7314453125	-1.23897746073931	-0.07132112084901393	-1
265858.8256835938	-1.237895636307673	-0.06491858518603591	-1
265867.919921875	-1.248930245510369	-0.07280417265395296	-1
265877.0141601563	-1.238544730966655	-0.06975138610777196	-1
265886.1083984375	-1.242439298920548	-0.06381598824047474	-1
265895.2026367188	-1.242655663806875	-0.06575646522915159	-1
265904.296875	-1.23760714979257	-0.06385653609776182	-1
265913.3911132813	-1.181640765862556	-0.02584087356496551	-1
265922.4853515625	-1.053336388270425	0.0700136251782547	-1
265931.5795898438	-0.8676231941727632	0.2282970777526074	-1
265940.673828125	-1.126467719849076	0.1508836319975659	-1
265949.7680664063	-2.164514322819033	-0.6194434745531869	-1
265958.8623046875	-2.756921381583379	-1.463588021898489	-1
265967.9565429688	-2.816638090209734	-1.48945201097201	-1
265977.05078125	-2.51394361423774	-1.150401079278207	-1
265986.1450195313	-1.938773624750808	-0.6047099081597138	-1
265995.2392578125	-1.483469782289241	0.02527027930412115	-1
266004.3334960938	-1.258233935622446	0.2721418954845722	-1
266013.427734375	-1.157263655336339	0.4027159180147407	-1
266022.5219726563	-1.102090609322859	0.4341921841511948	-1
266031.6162109375	-1.086728702393616	0.4323769328122361	-1
266040.7104492188	-1.052470928725115	0.4363614001741706	-1
266049.8046875	-1.029896858918292	0.4234130634147647	-1
266058.8989257813	-1.005303383505748	0.4331321907393598	-1
266067.9931640625	-0.9924657335836571	0.4008404657460317	-1
266077.0874023438	-0.9665740688531481	0.4058788723218356	-1
266086.181640625	-0.9590012978316901	0.3785702382606414	-1
266095.2758789063	-0.9423412015844824	0.3646972745706086	-1
266104.3701171875	-0.9164495368539736	0.3531593930739484	-1
266113.4643554688	-0.8868075474271235	0.3501620624818628	-1
266122.55859375	-0.8686328969756243	0.3432246619958562	-1
266131.6528320313	-0.8487994490622818	0.3200518425606834	-1
266140.7470703125	-0.8231241492181003	0.318063038709502	-1
266149.8413085938	-0.8098537695233548	0.2952823941884546	-1
266158.935546875	-0.7810051180130384	0.2871850066120925	-1
266168.0297851563	-0.763912291993176	0.2726055854466675	-1
266177.1240234375	-0.7331884781346891	0.2635045588549225	-1
266186.2182617188	-0.7400400328683893	0.2381357398943379	-1
266195.3125	-0.7406170058985956	0.1956021636125491	-1
266204.4067382813	-0.7644171433946065	0.1526157392435911	-1
266213.5009765625	-0.7942033760790082	0.0945566010661365	-1
266222.5952148438	-0.8218980815289119	0.04002646874724312	-1
266231.689453125	-0.8699310862935885	-0.01603189965218186	-1
266240.7836914063	-0.9737862317307272	-0.1144180239098642	-1
266249.8779296875	-1.034007791758513	-0.2102819177384674	-1
266258.9721679688	-1.084060202128911	-0.2507280943554233	-1
266268.06640625	-1.13360776109788	-0.2980897282951069	-1
266277.1606445313	-1.160148520487371	-0.3285659355813833	-1
266286.2548828125	-1.191232942489737	-0.3387780696948978	-1
266295.3491210938	-1.209912444342666	-0.3561204941419618	-1
266304.443359375	-1.216475512561263	-0.3491716624496568	-1
266313.5375976563	-1.203709984267948	-0.3296122507639095	-1
266322.6318359375	-1.200752997488141	-0.3076398821919919	-1
266331.7260742188	-1.201402092147123	-0.2952248700138812	-1
266340.8203125	-1.200825119116917	-0.285866302214952	-1
266349.9145507813	-1.210417295744097	-0.2752317546419988	-1
266359.0087890625	-1.203277254495293	-0.2685258033255664	-1
266368.1030273438	-1.213230039266353	-0.2528938383908325	-1
266377.197265625	-1.218206431651882	-0.2529922721531391	-1
266386.2915039063	-1.230467108543767	-0.2488544328115167	-1
266395.3857421875	-1.230250743657439	-0.239625475257067	-1
266404.4799804688	-1.245035677556476	-0.2365158507383815	-1
266413.57421875	-1.249290853654248	-0.2305842685668423	-1
266422.6684570313	-1.247271448048526	-0.2199429203132167	-1
266431.7626953125	-1.263210328007976	-0.2089919964985602	-1
266440.8569335938	-1.277562532134358	-0.2183270651578759	-1
266449.951171875	-1.287010465503987	-0.2109141854689862	-1
266459.0454101563	-1.293789898608911	-0.2033617133766012	-1
266468.1396484375	-1.307925737848966	-0.2005886895441594	-1
266477.2338867188	-1.305545724099365	-0.1884416206180653	-1
266486.328125	-1.317229427961043	-0.1784977916484795	-1
266495.4223632813	-1.318167009135128	-0.1688332572704035	-1
266504.5166015625	-1.325523415270259	-0.1594185127356336	-1
266513.6108398438	-1.318094887506353	-0.1412789206779729	-1
266522.705078125	-1.328191915534963	-0.1304435144450301	-1
266531.7993164063	-1.330067077883134	-0.1225732558619384	-1
266540.8935546875	-1.326749482959447	-0.1083251395752742	-1
266549.9877929688	-1.334971348639888	-0.095005546923733	-1
266559.08203125	-1.325379172012707	-0.08543686058005731	-1
266568.1762695313	-1.331797996973753	-0.06734839078559823	-1
266577.2705078125	-1.328841010193945	-0.06044654633994837	-1
266586.3647460938	-1.337423484018264	-0.05278224753048188	-1
266595.458984375	-1.331365267201098	-0.04008493536821839	-1
266604.5532226563	-1.338144700306022	-0.0331902779820354	-1
266613.6474609375	-1.333240429549269	-0.02034170436233163	-1
266622.7416992188	-1.329129496709048	-0.009419079857619988	-1
266631.8359375	-1.340019862654193	-9.074260119075906e-05	-1
266640.9301757813	-1.340596835684399	-0.00356648890673429	-1
266650.0244140625	-1.339010159851332	0.01147458635431989	-1
266659.1186523438	-1.335404078412542	0.02190796628290598	-1
266668.212890625	-1.342688362918897	0.02492859853725959	-1
266677.3071289063	-1.335476200041318	0.03507536257012001	-1
266686.4013671875	-1.344635646895843	0.03870205831163907	-1
266695.4956054688	-1.342255633146242	0.04386952773029345	-1
266704.58984375	-1.345140498297274	0.0478109229034015	-1
266713.6840820313	-1.335548321670094	0.06143142852094495	-1
266722.7783203125	-1.339082281480108	0.06699954539976712	-1
266731.8725585938	-1.337062875874385	0.07200055714334369	-1
266740.966796875	-1.335259835154991	0.07759576269132444	-1
266750.0610351563	-1.342688362918897	0.079968151078106	-1
266759.1552734375	-1.337423484018264	0.0809801887424834	-1
266768.2495117188	-1.346655052501566	0.08504351194684451	-1
266777.34375	-1.33836106519235	0.08721333570526459	-1
266786.4379882813	-1.343698065721758	0.09249870823699766	-1
266795.5322265625	-1.335476200041318	0.09850221760209979	-1
266804.6264648438	-1.336774389359282	0.1016653900880192	-1
266813.720703125	-1.33150951045865	0.1095212324009059	-1
266822.8149414063	-1.326172509929241	0.1120253437401966	-1
266831.9091796875	-1.331148902314771	0.1174841597141478	-1
266841.0034179688	-1.329850712996807	0.1109169838641371	-1
266850.09765625	-1.329994956254358	0.1160053626974097	-1
266859.1918945313	-1.329778591368031	0.1162596002399449	-1
266868.2861328125	-1.33338467280682	0.1122407673983143	-1
266877.3803710938	-1.321628847316366	0.1206819138692533	-1
266886.474609375	-1.322277941975348	0.1235656673062995	-1
266895.5688476563	-1.313046373492047	0.1285991865488093	-1
266904.6630859375	-1.303382075236091	0.1345048796216958	-1
266913.7573242188	-1.328985253451497	0.1265436864571291	-1
266922.8515625	-1.347159903902996	0.09348082967715607	-1
266931.9458007813	-1.354949039810782	0.08820124062870989	-1
266941.0400390625	-1.350549620455458	0.08993579606811789	-1
266950.1342773438	-1.350405377197907	0.09152869334179839	-1
266959.228515625	-1.344852011782171	0.09803150037156369	-1
266968.3227539063	-1.34658293087279	0.09573448934236017	-1
266977.4169921875	-1.324513712467398	0.1098077663344948	-1
266986.5112304688	-1.326028266671689	0.1175822247009614	-1
266995.60546875	-1.311892427431634	0.1198964335179309	-1
267004.6997070313	-1.310017265083464	0.1250651006868485	-1
267013.7939453125	-1.247343569677302	0.1560388806121107	-1
267022.8881835938	-1.095888149248141	0.2657949398575863	-1
267031.982421875	-0.9203441048078662	0.4257934918067001	-1
267041.0766601563	-2.367536707822884	-0.3032916662839488	-1
267050.1708984375	-2.831567267366322	-1.458003892160496	-1
267059.2651367188	-2.823489644943434	-1.24943278228258	-1
267068.359375	-2.813969589945029	-1.030389312662789	-1
267077.4536132813	-2.484734354583544	-0.9164531451779782	-1
267086.5478515625	-1.92759477229056	-0.1478364694149779	-1
267095.6420898438	-1.501932919255843	0.2385184361128117	-1
267104.736328125	-1.29003957391257	0.5827326256069781	-1
267113.8305664063	-1.149041789655899	0.6601822247481258	-1
267122.9248046875	-1.129424706628884	0.6857613627640147	-1
267132.0190429688	-1.105047596102667	0.690087459702048	-1
267141.11328125	-1.08442081027279	0.6146381565175461	-1
267150.2075195313	-1.069707998002529	0.6696027163640479	-1
267159.3017578125	-1.037613873197302	0.5740559680815989	-1
267168.3959960938	-1.021819236495404	0.6284046045604195	-1
267177.490234375	-0.9820802190399431	0.5630875000190976	-1
267186.5844726563	-0.9700359070343861	0.5766597162111782	-1
267195.6787109375	-0.9437836341599982	0.545015338117063	-1
267204.7729492188	-0.9289265786321853	0.5085168109432529	-1
267213.8671875	-0.9026743057577975	0.518008332905139	-1
267222.9614257813	-0.879739627807096	0.4591708857532216	-1
267232.0556640625	-0.8715177621266559	0.4753869572257909	-1
267241.1499023438	-0.8333654205042625	0.4125074696595029	-1
267250.244140625	-0.8005500794112778	0.4450793304063963	-1
267259.3383789063	-0.7667250355154319	0.4084258498890057	-1
267268.4326171875	-0.7405448842698198	0.4019288786651143	-1
267277.5268554688	-0.710470165070315	0.3867266666792154	-1
267286.62109375	-0.7100374352976603	0.3423638888748573	-1
267295.7153320313	-0.7122010841609341	0.3110166132533888	-1
267304.8095703125	-0.728428450635487	0.2380069994859268	-1
267313.9038085938	-0.7957900519120755	0.1769112087028085	-1
267322.998046875	-0.8540643279629145	0.05302504123001819	-1
267332.0922851563	-0.9113289012108924	-0.007014933480703416	-1
267341.1865234375	-0.9754450291925704	-0.09594709261221771	-1
267350.2807617188	-1.0397054004318	-0.1721651280912018	-1
267359.375	-1.079732904402364	-0.2232767455091058	-1
267368.4692382813	-1.124304070985803	-0.2723045978414191	-1
267377.5634765625	-1.166711588705968	-0.3046012147089942	-1
267386.6577148438	-1.183155320066848	-0.3392325244270815	-1
267395.751953125	-1.180991671203574	-0.3213416411711243	-1
267404.8461914063	-1.186761401505637	-0.3252704530993613	-1
267413.9404296875	-1.177169224878457	-0.3116674732380924	-1
267423.0346679688	-1.16649522381964	-0.2949255932113054	-1
267432.12890625	-1.165557642645555	-0.284444080794626	-1
267441.2231445313	-1.166423102190864	-0.2800102135333511	-1
267450.3173828125	-1.167000075221071	-0.277534085262227	-1
267459.4116210938	-1.170461913402309	-0.2699699429929591	-1
267468.505859375	-1.181640765862556	-0.2770279669722909	-1
267477.6000976563	-1.177169224878457	-0.2693037401286869	-1
267486.6943359375	-1.189718388285445	-0.2680249606056521	-1
267495.7885742188	-1.191305064118512	-0.2679902357609747	-1
267504.8828125	-1.195920848360163	-0.2632396582070758	-1
267513.9770507813	-1.202772403093863	-0.2593605474756109	-1
267523.0712890625	-1.215321566500851	-0.2637567172910298	-1
267532.1655273438	-1.217629458621676	-0.2602055899977278	-1
267541.259765625	-1.222245242863327	-0.2527836631653828	-1
267550.3540039063	-1.232702879035816	-0.2520730267580372	-1
267559.4482421875	-1.230178622028664	-0.2454444398217951	-1
267568.5424804688	-1.244386582897494	-0.2399206777237458	-1
267577.63671875	-1.249290853654248	-0.240903004107334	-1
267586.7309570313	-1.256503016531827	-0.235253097376134	-1
267595.8251953125	-1.25268057020671	-0.2228784570016962	-1
267604.9194335938	-1.262561233348994	-0.2172320419824869	-1
267614.013671875	-1.259604246569186	-0.2083516546799646	-1
267623.1079101563	-1.259676368197962	-0.1962991486895885	-1
267632.2021484375	-1.267609747363299	-0.1883896146697257	-1
267641.2963867188	-1.266527922931662	-0.1847061449367174	-1
267650.390625	-1.260830314258375	-0.1663811579115844	-1
267659.4848632813	-1.258738787023877	-0.1532088494685115	-1
267668.5791015625	-1.264003665924509	-0.1479270226403436	-1
267677.6733398438	-1.257224232819585	-0.1362464705809239	-1
267686.767578125	-1.264075787553285	-0.128008823930384	-1
267695.8618164063	-1.260325462856944	-0.1209427645308022	-1
267704.9560546875	-1.257079989562034	-0.1092523242912487	-1
267714.0502929688	-1.255493313728966	-0.09641323944217889	-1
267723.14453125	-1.263715179409406	-0.09651759717730837	-1
267732.2387695313	-1.258955151910204	-0.08865365432952255	-1
267741.3330078125	-1.258810908652652	-0.07787959026599964	-1
267750.4272460938	-1.265446098500025	-0.07509866924810772	-1
267759.521484375	-1.255926043501621	-0.06737022924332548	-1
267768.6157226563	-1.26090243588715	-0.05536457700791047	-1
267777.7099609375	-1.254267246039778	-0.0511745195350695	-1
267786.8041992188	-1.256430894903051	-0.0420088327044388	-1
267795.8984375	-1.249218732025472	-0.03269965788862388	-1
267804.9926757813	-1.260541827743271	-0.0324987453449698	-1
267814.0869140625	-1.256503016531827	-0.02927655697705519	-1
267823.1811523438	-1.256142408387948	-0.02265458809320597	-1
267832.275390625	-1.263498814523079	-0.01859661389062692	-1
267841.3696289063	-1.256214530016724	-0.01835543718780159	-1
267850.4638671875	-1.263426692894303	-0.007447035913021226	-1
267859.5581054688	-1.257440597705912	-0.00813133987976639	-1
267868.65234375	-1.257873327478567	0.001412061431440552	-1
267877.7465820313	-1.249867826684454	0.01086897319017747	-1
267886.8408203125	-1.259460003311635	0.009386692322798059	-1
267895.9350585938	-1.259171516796531	0.01144492531942114	-1
267905.029296875	-1.260541827743271	0.01116194515491703	-1
267914.1235351563	-1.255565435357742	0.02205913989146239	-1
267923.2177734375	-1.257945449107343	0.02223176948677466	-1
267932.3120117188	-1.250949651116091	0.03005506681071514	-1
267941.40625	-1.247271448048526	0.03782526284723653	-1
267950.5004882813	-1.251742989032625	0.03854909890428185	-1
267959.5947265625	-1.24669447501832	0.04036753025852854	-1
267968.6889648438	-1.258666665395101	0.03932684012715099	-1
267977.783203125	-1.255998165130397	0.0358606816774723	-1
267986.8774414063	-1.263859422666958	0.03606649573206694	-1
267995.9716796875	-1.25268057020671	0.0423817918857306	-1
268005.0659179688	-1.258378178879998	0.04556906968831463	-1
268014.16015625	-1.248713880624042	0.05099378381556106	-1
268023.2543945313	-1.242367177291772	0.05869807273528896	-1
268032.3486328125	-1.237751393050122	0.06807670872637488	-1
268041.4428710938	-1.231981662748058	0.06860211640973529	-1
268050.537109375	-1.258017570736119	0.0606540839938832	-1
268059.6313476563	-1.265157611984922	0.03843162672947795	-1
268068.7255859375	-1.27359584255169	0.0381110405643434	-1
268077.8198242188	-1.258017570736119	0.04704293570517809	-1
268086.9140625	-1.26587882827268	0.05021294922147927	-1
268096.0083007813	-1.267032774333093	0.04901378586967716	-1
268105.1025390625	-1.268547328537384	0.04423038272165548	-1
268114.1967773438	-1.26450851732594	0.05504425146858927	-1
268123.291015625	-1.268980058310039	0.05584847850453201	-1
268132.3852539063	-1.257584840963464	0.07162006894124585	-1
268141.4794921875	-1.209912444342666	0.1000335119268261	-1
268150.5737304688	-1.07619894459235	0.1962043146148092	-1
268159.66796875	-0.8794511412919929	0.364394805961451	-1
268168.7622070313	-1.142478721437302	0.2870659845393415	-1
268177.8564453125	-3.015910150517243	-0.9317692240803428	-1
268186.9506835938	-3.097768199177766	-1.992298100172388	-1
268196.044921875	-2.994057296998179	-1.346787165342108	-1
268205.1391601563	-2.663019020917299	-1.034243645506823	-1
268214.2333984375	-2.022939565532156	-0.5466650484585746	-1
268223.3276367188	-1.52905065167554	0.3192931699616912	-1
268232.421875	-1.269412788082694	0.4092449116061744	-1
268241.5161132813	-1.154378790185307	0.6999581878303332	-1
268250.6103515625	-1.070789822434166	0.6534316665916797	-1
268259.7045898438	-1.049369698687756	0.6921055151321232	-1
268268.798828125	-1.032493237554221	0.6924444533294504	-1
268277.8930664063	-1.000903964150425	0.6088671428750616	-1
268286.9873046875	-0.9843881111607685	0.6929825877381786	-1
268296.0815429688	-0.9582079599151564	0.5674712674182132	-1
268305.17578125	-0.9402496743499845	0.6458169525460686	-1
268314.2700195313	-0.9009433866671786	0.5596806242207759	-1
268323.3642578125	-0.8862305743969172	0.5936419862494891	-1
268332.4584960938	-0.8570934363714977	0.5510661440978864	-1
268341.552734375	-0.8329326907316078	0.5293324768904397	-1
268350.6469726563	-0.8134598509621444	0.5373463362267551	-1
268359.7412109375	-0.7874239429740838	0.4702441158033811	-1
268368.8354492188	-0.7773269149454731	0.4986594991505854	-1
268377.9296875	-0.7303036129836575	0.4305672013510811	-1
268387.0239257813	-0.7144368546529836	0.4682963370223823	-1
268396.1181640625	-0.6865979059455283	0.4061521509421702	-1
268405.2124023438	-0.6799627160981555	0.398584153962546	-1
268414.306640625	-0.6708753908724059	0.3577185385218686	-1
268423.4008789063	-0.6771499725758997	0.3056680622903333	-1
268432.4951171875	-0.6985700963223096	0.270791039097539	-1
268441.5893554688	-0.7178986928342215	0.1852939881842119	-1
268450.68359375	-0.796655511457385	0.1315238632826156	-1
268459.7778320313	-0.8455539757673712	0.007390368585816967	-1
268468.8720703125	-0.9036840085606586	-0.03639616217584098	-1
268477.9663085938	-0.9510679186663531	-0.1151804152800728	-1
268487.060546875	-1.009125829830865	-0.174072894239843	-1
268496.1547851563	-1.047206049824482	-0.2183397967754224	-1
268505.2490234375	-1.083483229098705	-0.263981082493811	-1
268514.3432617188	-1.127333179394386	-0.2847859810574085	-1
268523.4375	-1.148320573368141	-0.3274880462853872	-1
268532.5317382813	-1.146806019163849	-0.3068926635986834	-1
268541.6259765625	-1.146878140792625	-0.3058776439803549	-1
268550.7202148438	-1.147887843595486	-0.2934885093696425	-1
268559.814453125	-1.132886544810122	-0.2789832817640339	-1
268568.9086914063	-1.13497807204462	-0.264549622700698	-1
268578.0029296875	-1.124304070985803	-0.2526697681607873	-1
268587.0971679688	-1.134040490870534	-0.2495124281944531	-1
268596.19140625	-1.134401099014413	-0.2435181812187298	-1
268605.2856445313	-1.142190234922199	-0.2469720383352491	-1
268614.3798828125	-1.133824125984207	-0.2308243787584187	-1
268623.4741210938	-1.132453815037467	-0.2243114176214645	-1
268632.568359375	-1.137069599279118	-0.2147886133752226	-1
268641.6625976563	-1.134401099014413	-0.2140271446976244	-1
268650.7568359375	-1.155244249730617	-0.2125434295006768	-1
268659.8510742188	-1.163538237039833	-0.2208781405794425	-1
268668.9453125	-1.174284359727426	-0.2172413813002924	-1
268678.0395507813	-1.174572846242529	-0.2101057825041285	-1
268687.1337890625	-1.192603253436477	-0.2159705868603088	-1
268696.2280273438	-1.199310564912625	-0.2127752619555228	-1
268705.322265625	-1.209696079456339	-0.2159687328228735	-1
268714.4165039063	-1.215177323243299	-0.2061565908946458	-1
268723.5107421875	-1.223471310552515	-0.2067985018645261	-1
268732.6049804688	-1.214600350213093	-0.1908414931806682	-1
268741.69921875	-1.212653066236146	-0.1733759649414136	-1
268750.7934570313	-1.214528228584317	-0.1661412616430507	-1
268759.8876953125	-1.207027579191635	-0.1518884855809119	-1
268768.9819335938	-1.212436701349819	-0.1422989059432974	-1
268778.076171875	-1.207676673850617	-0.1337644431647411	-1
268787.1704101563	-1.21705248559147	-0.128479872951802	-1
268796.2646484375	-1.214239742069214	-0.121853940907954	-1
268805.3588867188	-1.223615553810067	-0.1182531361030066	-1
268814.453125	-1.21842279653821	-0.1094594479335588	-1
268823.5473632813	-1.22116341843169	-0.1011207307681234	-1
268832.6416015625	-1.224769499870479	-0.09469969698386807	-1
268841.7358398438	-1.216403390932487	-0.08685727662259485	-1
268850.830078125	-1.21481671509942	-0.07003193485649509	-1
268859.9243164063	-1.212436701349819	-0.06465297260212131	-1
268869.0185546875	-1.218350674909434	-0.06055905585575563	-1
268878.1127929688	-1.215393688129626	-0.0542824680065666	-1
268887.20703125	-1.226211932445995	-0.05425235773291379	-1
268896.3012695313	-1.223254945666188	-0.04980191785620146	-1
268905.3955078125	-1.231044081573973	-0.04749695551717481	-1
268914.4897460938	-1.229241040854578	-0.04188298718569915	-1
268923.583984375	-1.237823514678897	-0.04140178577274002	-1
268932.6782226563	-1.229313162483354	-0.03290305810927732	-1
268941.7724609375	-1.225851324302116	-0.02073341016868565	-1
268950.8666992188	-1.227438000135183	-0.01462110870693958	-1
268959.9609375	-1.218278553280658	-0.00807195198811125	-1
268969.0551757813	-1.223254945666188	0.001109944247138674	-1
268978.1494140625	-1.218062188394331	0.002120489523585834	-1
268987.2436523438	-1.221524026575569	0.007609346892744153	-1
268996.337890625	-1.213230039266353	0.01493625421357717	-1
269005.4321289063	-1.220009472371277	0.01619795673823708	-1
269014.5263671875	-1.215898539531057	0.01991583494524173	-1
269023.6206054688	-1.22116341843169	0.01947372263696758	-1
269032.71484375	-1.227654365021511	0.01901404505378996	-1
269041.8090820313	-1.224769499870479	0.01927678643792173	-1
269050.9033203125	-1.233424095323574	0.02714440757880032	-1
269059.9975585938	-1.234073189982556	0.01962779106895454	-1
269069.091796875	-1.237823514678897	0.02259261362026721	-1
269078.1860351563	-1.230827716687646	0.02933696013464666	-1
269087.2802734375	-1.240275650057274	0.02712374355659993	-1
269096.3745117188	-1.235443500929296	0.0301339925500489	-1
269105.46875	-1.236092595588278	0.03203169526721858	-1
269114.5629882813	-1.234433798126435	0.03869079134943374	-1
269123.6572265625	-1.244530826155046	0.03114283850177377	-1
269132.7514648438	-1.23847260933788	0.03421716231787936	-1
269141.845703125	-1.242872028693203	0.03748460784887792	-1
269150.9399414063	-1.247487812934853	0.03339251035486393	-1
269160.0341796875	-1.239482312140741	0.03767192502304	-1
269169.1284179688	-1.243881731496064	0.0432059246883029	-1
269178.22265625	-1.234433798126435	0.04483034341164899	-1
269187.3168945313	-1.243232636837082	0.04721452739345142	-1
269196.4111328125	-1.244170218011167	0.04234701622280464	-1
269205.5053710938	-1.27085522065821	0.0272992543401269	-1
269214.599609375	-1.277923140278237	0.01419317601684162	-1
269223.6938476563	-1.287154708761538	0.009509974675603421	-1
269232.7880859375	-1.294511114896669	0.009691305137829405	-1
269241.8823242188	-1.282827411034991	0.01176870792316088	-1
269250.9765625	-1.290688668571552	0.02477506588369444	-1
269260.0708007813	-1.293645655351359	0.01508084220276035	-1
269269.1650390625	-1.294222628381566	0.01937860851423184	-1
269278.2592773438	-1.284197721981731	0.03113854866331306	-1
269287.353515625	-1.289967452283794	0.03137409180237029	-1
269296.4477539063	-1.275687369786188	0.04154956003801251	-1
269305.5419921875	-1.232991365550919	0.07058958998617396	-1
269314.6362304688	-0.9161610503388704	0.2668626711096192	-1
269323.73046875	-1.040931468120989	0.3655833026894858	-1
269332.8247070313	-2.029430512121977	-0.3370865090974459	-1
269341.9189453125	-2.807983494756638	-1.300805728712498	-1
269351.0131835938	-2.91111742390602	-1.458824316699618	-1
269360.107421875	-2.86467109497441	-1.24473870850935	-1
269369.2016601563	-2.656528074327478	-1.020351738714216	-1
269378.2958984375	-2.090229045179969	-0.4797507483015711	-1
269387.3901367188	-1.339947741025417	0.2788034215479929	-1
269396.484375	-1.211715485062061	0.6865780831974282	-1
269405.5786132813	-1.154234546927756	0.6054310743939045	-1
269414.6728515625	-1.11355794829821	0.647287899733325	-1
269423.7670898438	-1.095888149248141	0.6612866955241097	-1
269432.861328125	-1.077208647395211	0.6000207826561173	-1
269441.9555664063	-1.052687293611442	0.6335156453257911	-1
269451.0498046875	-1.011938573353121	0.5914988585414223	-1
269460.1440429688	-0.9984518287720476	0.6087492693476084	-1
269469.23828125	-0.9846044760470959	0.5638019565228931	-1
269478.3325195313	-0.9691704474890767	0.5421492288116081	-1
269487.4267578125	-0.9659970958229418	0.5237568097067433	-1
269496.5209960938	-0.9431345395010161	0.4789880384897494	-1
269505.615234375	-0.9279168758293243	0.4861862478108882	-1
269514.7094726563	-0.883562074132213	0.4558398000466168	-1
269523.8037109375	-0.8736092893611538	0.4639594592244254	-1
269532.8979492188	-0.844255786449407	0.4263276602009432	-1
269541.9921875	-0.8259368927403561	0.4181587254710499	-1
269551.0864257813	-0.8104307425535611	0.3960554394058137	-1
269560.1806640625	-0.7844669561942764	0.3665906574303642	-1
269569.2749023438	-0.7755959958548542	0.3598010228951186	-1
269578.369140625	-0.7629747108190907	0.3122401322993019	-1
269587.4633789063	-0.7943476193365597	0.2775775617784646	-1
269596.5576171875	-0.8103586209247853	0.2023774515284172	-1
269605.6518554688	-0.8460588271688018	0.1547235866353011	-1
269614.74609375	-0.878729925004235	0.09033803940552999	-1
269623.8403320313	-0.9326769033285265	0.01926234776663057	-1
269632.9345703125	-0.9827293136989252	-0.04410437070745591	-1
269642.0288085938	-1.033070210584427	-0.1152755136864962	-1
269651.123046875	-1.140603559089131	-0.1919685656228069	-1
269660.2172851563	-1.178467414196422	-0.2810661799816494	-1
269669.3115234375	-1.205080295214688	-0.2822916886670762	-1
269678.4057617188	-1.216980363962694	-0.2973524894207054	-1
269687.5	-1.236164717217054	-0.3078766224822833	-1
269696.5942382813	-1.231837419490507	-0.2962297560547874	-1
269705.6884765625	-1.231116203202749	-0.2922771217041356	-1
269714.7827148438	-1.22527435127191	-0.2696647646134309	-1
269723.876953125	-1.228808311081924	-0.2706478017108257	-1
269732.9711914063	-1.218999769568416	-0.2519592900705716	-1
269742.0654296875	-1.219071891197192	-0.2427560354794062	-1
269751.1596679688	-1.215754296273505	-0.2337033789751811	-1
269760.25390625	-1.213590647410232	-0.2232911115103553	-1
269769.3481445313	-1.219648864227398	-0.2181687025971153	-1
269778.4423828125	-1.211354876918182	-0.2060745777082458	-1
269787.5366210938	-1.242799907064427	-0.2142098874490938	-1
269796.630859375	-1.247992664336284	-0.2277991797057855	-1
269805.7250976563	-1.275038275127205	-0.2326000121406194	-1
269814.8193359375	-1.280086789141511	-0.2373504260844507	-1
269823.9135742188	-1.285207424784592	-0.2330339414744489	-1
269833.0078125	-1.293212925578705	-0.2220320192825871	-1
269842.1020507813	-1.292203222775844	-0.2224194985783061	-1
269851.1962890625	-1.30734876481876	-0.2108541292554708	-1
269860.2905273438	-1.32790342901986	-0.2244601090038814	-1
269869.384765625	-1.341967146631139	-0.2283230479682661	-1
269878.4790039063	-1.343337457577879	-0.2168361651552372	-1
269887.5732421875	-1.35343448560649	-0.2128466462784278	-1
269896.6674804688	-1.344275038751964	-0.1952986938822624	-1
269905.76171875	-1.349179309508718	-0.1828279118285545	-1
269914.8559570313	-1.351487201629544	-0.1722846321607925	-1
269923.9501953125	-1.344275038751964	-0.1613555950646602	-1
269933.0444335938	-1.334394375609681	-0.1351258272289945	-1
269942.138671875	-1.331797996973753	-0.1231616167325661	-1
269951.2329101563	-1.327110091103326	-0.1102719165770756	-1
269960.3271484375	-1.325595536899035	-0.09746759940185473	-1
269969.4213867188	-1.342976849434	-0.1007406674449672	-1
269978.515625	-1.348962944622391	-0.1037585708900364	-1
269987.6098632813	-1.374638244466572	-0.1103649976098912	-1
269996.7041015625	-1.371392771171662	-0.1106726476905606	-1
270005.7983398438	-1.381057069427618	-0.1011002890931309	-1
270014.892578125	-1.37348429840616	-0.09040833995469526	-1
270023.9868164063	-1.373340055148608	-0.07871975770976779	-1
270033.0810546875	-1.372763082118402	-0.06576016301112542	-1
270042.1752929688	-1.367209716702666	-0.05912011379224452	-1
270051.26953125	-1.368435784391854	-0.04382517970452954	-1
270060.3637695313	-1.37211398745942	-0.04340916773293792	-1
270069.4580078125	-1.377811596132707	-0.04024185034769736	-1
270078.5522460938	-1.375864312155761	-0.03274190113149006	-1
270087.646484375	-1.384591029237632	-0.03124928298694931	-1
270096.7407226563	-1.377306744731277	-0.0223875146124846	-1
270105.8349609375	-1.381994650601703	-0.0157937671061695	-1
270114.9291992188	-1.382427380374358	-0.01047867367464368	-1
270124.0234375	-1.378388569162914	-0.005480304200365849	-1
270133.1176757813	-1.370383068368801	0.01121660732689727	-1
270142.2119140625	-1.378244325905362	0.01520449258959103	-1
270151.3061523438	-1.37896554219312	0.01816456784259953	-1
270160.400390625	-1.371464892800438	0.02644425320680829	-1
270169.4946289063	-1.379975244995981	0.029573186314298	-1
270178.5888671875	-1.372258230716971	0.03114041404500963	-1
270187.6831054688	-1.378027961019035	0.0365321472774624	-1
270196.77734375	-1.36937336556594	0.04121450370126963	-1
270205.8715820313	-1.370960041399007	0.045665376473154	-1
270214.9658203125	-1.360863013370397	0.05478908758826167	-1
270224.0600585938	-1.359059972651002	0.05877674553589489	-1
270233.154296875	-1.358555121249571	0.06345733083754207	-1
270242.2485351563	-1.372402473974523	0.05264161847548099	-1
270251.3427734375	-1.389783786509488	0.03903026325477255	-1
270260.4370117188	-1.397861408932377	0.02796551371936056	-1
270269.53125	-1.389639543251937	0.03444214297046839	-1
270278.6254882813	-1.383581326434771	0.04722275718395309	-1
270287.7197265625	-1.392740773289296	0.0432581456479073	-1
270296.8139648438	-1.382283137116806	0.04631953140360121	-1
270305.908203125	-1.390577124426022	0.05045793900361234	-1
270315.0024414063	-1.387620137646215	0.04709082763710646	-1
270324.0966796875	-1.378893420564344	0.05463372798046194	-1
270333.1909179688	-1.331365267201098	0.08866170575474722	-1
270342.28515625	-1.220586445401483	0.1687030412964737	-1
270351.3793945313	-1.026074412593176	0.3244257265468108	-1
270360.4736328125	-1.058240659027178	0.3777241723323178	-1
270369.5678710938	-1.928676596722197	-0.1749542022153057	-1
270378.662109375	-2.55865902407873	-1.019701980243774	-1
270387.7563476563	-2.668572386333035	-1.161213648379992	-1
270396.8505859375	-2.582531283203517	-0.9578068158537276	-1
270405.9448242188	-2.129391089605223	-0.6253544824640247	-1
270415.0390625	-1.661898691880547	-0.005067735879027244	-1
270424.1333007813	-1.400169301053202	0.3027232104514285	-1
270433.2275390625	-1.279726180997632	0.439116763015732	-1
270442.3217773438	-1.210777903887976	0.5046337931845302	-1
270451.416015625	-1.161302466547783	0.5092433891135157	-1
270460.5102539063	-1.152287262950809	0.5275735707458052	-1
270469.6044921875	-1.136925356021566	0.4780188840770787	-1
270478.6987304688	-1.110168231745748	0.4918562307263993	-1
270487.79296875	-1.097763311596312	0.4668146792866264	-1
270496.8872070313	-1.073241957812543	0.4558854747456951	-1
270505.9814453125	-1.0602600646329	0.4444723354872463	-1
270515.0756835938	-1.040787224863437	0.4208465269268976	-1
270524.169921875	-1.008620978429434	0.4217588500384406	-1
270533.2641601563	-0.980060813434221	0.4124598126430925	-1
270542.3583984375	-0.9611649466949639	0.4050463126141012	-1
270551.4526367188	-0.9416921069255003	0.3827001897260474	-1
270560.546875	-0.9155119556798883	0.3789710421016553	-1
270569.6411132813	-0.8979863998873712	0.3587794712552993	-1
270578.7353515625	-0.8618534638706999	0.3496518863956196	-1
270587.8295898438	-0.8063919313421168	0.3612663952534269	-1
270596.923828125	-0.7825917938461059	0.3600650955348411	-1
270606.0180664063	-0.7784808610058858	0.3252409374955544	-1
270615.1123046875	-0.776677820286491	0.2842124275798291	-1
270624.2065429688	-0.8000452280098472	0.2388662939240766	-1
270633.30078125	-0.8255762845964771	0.1704017038962148	-1
270642.3950195313	-0.8557952470535335	0.1171102291332895	-1
270651.4892578125	-0.950418824007371	0.02311867175828358	-1
270660.5834960938	-1.012010694981896	-0.08307185971743077	-1
270669.677734375	-1.069203146601099	-0.1414726405411112	-1
270678.7719726563	-1.118750705570067	-0.2007440239073612	-1
270687.8662109375	-1.172481319008031	-0.2554036180183144	-1
270696.9604492188	-1.199094200026298	-0.2870960679379929	-1
270706.0546875	-1.234794406270314	-0.3116315047089471	-1
270715.1489257813	-1.255060583956311	-0.3296157269808161	-1
270724.2431640625	-1.275038275127205	-0.3390606608100253	-1
270733.3374023438	-1.263715179409406	-0.3282110137792108	-1
270742.431640625	-1.263859422666958	-0.3089558554449317	-1
270751.5258789063	-1.257945449107343	-0.2977125679250631	-1
270760.6201171875	-1.247776299449956	-0.2799096230127238	-1
270769.7143554688	-1.249723583426903	-0.2648803212165073	-1
270778.80859375	-1.237679271421346	-0.2555037804814941	-1
270787.9028320313	-1.232486514149489	-0.2346876175608747	-1
270796.9970703125	-1.227077391991305	-0.2243311394440703	-1
270806.0913085938	-1.241285352860135	-0.2243840529838318	-1
270815.185546875	-1.24308839357953	-0.2246029081302089	-1
270824.2797851563	-1.258233935622446	-0.2259632806615534	-1
270833.3740234375	-1.264580638954716	-0.2264819874727943	-1
270842.4682617188	-1.264869125469819	-0.2220594293983152	-1
270851.5625	-1.270134004370452	-0.2107315921928447	-1
270860.6567382813	-1.269340666453918	-0.2084644759094483	-1
270869.7509765625	-1.272369774862501	-0.1965878996282477	-1
270878.8452148438	-1.278716478194771	-0.193762774603731	-1
270887.939453125	-1.297972953077907	-0.1993609023593291	-1
270897.0336914063	-1.303021467092212	-0.1994011484182722	-1
270906.1279296875	-1.318455495650232	-0.1989585311671841	-1
270915.2221679688	-1.323431888035761	-0.1956348660940106	-1
270924.31640625	-1.338793794965004	-0.1957234718213022	-1
270933.4106445313	-1.337134997503161	-0.184664379891041	-1
270942.5048828125	-1.346222322728911	-0.1738276106375153	-1
270951.5991210938	-1.340885322199502	-0.1636626421217956	-1
270960.693359375	-1.328552523678842	-0.1427512422867684	-1
270969.7875976563	-1.323864617808416	-0.1208812867474662	-1
270978.8818359375	-1.304319656410176	-0.1039839624503343	-1
270987.9760742188	-1.305040872697934	-0.08282255909021802	-1
270997.0703125	-1.311603940916531	-0.08450500704433828	-1
271006.1645507813	-1.323576131293313	-0.08875362544185864	-1
271015.2587890625	-1.315642752127976	-0.07809541536838949	-1
271024.3530273438	-1.319970049854523	-0.07073102789764102	-1
271033.447265625	-1.316724576559613	-0.06200203255723485	-1
271042.5415039063	-1.311603940916531	-0.05382977195612648	-1
271051.6357421875	-1.316652454930837	-0.04343966327338336	-1
271060.7299804688	-1.31333486000715	-0.04387515277429997	-1
271069.82421875	-1.317229427961043	-0.03393536579650691	-1
271078.9184570313	-1.32105187428616	-0.03420581284843963	-1
271088.0126953125	-1.331870118602529	-0.03741131317349596	-1
271097.1069335938	-1.327470699247205	-0.03102100485458934	-1
271106.201171875	-1.335115591897439	-0.02848756896938248	-1
271115.2954101563	-1.334682862124784	-0.02383007618574204	-1
271124.3896484375	-1.328985253451497	-0.01732557537417538	-1
271133.4838867188	-1.319248833566765	0.001150962826892446	-1
271142.578125	-1.320763387771057	0.005184406011137635	-1
271151.6723632813	-1.311676062545307	0.01372548755887213	-1
271160.7666015625	-1.307709372962639	0.02477345298699468	-1
271169.8608398438	-1.315282143984097	0.02351879473507877	-1
271178.955078125	-1.311243332772652	0.02372169624239565	-1
271188.0493164063	-1.320330657998402	0.02570541963583151	-1
271197.1435546875	-1.318239130763904	0.02384633971662896	-1
271206.2377929688	-1.327687064133533	0.02323977174160946	-1
271215.33203125	-1.319032468680438	0.02755324815517699	-1
271224.4262695313	-1.323720374550864	0.0316059469263003	-1
271233.5205078125	-1.320619144513505	0.03476034572203997	-1
271242.6147460938	-1.315282143984097	0.03899395555743232	-1
271251.708984375	-1.320402779627178	0.04504692291282809	-1
271260.8032226563	-1.313479103264702	0.04225871595678376	-1
271269.8974609375	-1.309151805538154	0.05458879842324028	-1
271278.9916992188	-1.30374268337997	0.05875117488329569	-1
271288.0859375	-1.309800900197137	0.05655226437949343	-1
271297.1801757813	-1.294727479782996	0.06404570699273371	-1
271306.2744140625	-1.297251736790149	0.06925513679038303	-1
271315.3686523438	-1.292347466033395	0.07041008784994304	-1
271324.462890625	-1.287659560162969	0.0714615562759541	-1
271333.5571289063	-1.291986857889516	0.0751350750213523	-1
271342.6513671875	-1.324946442240053	0.05123448610472689	-1
271351.7456054688	-1.336918632616834	0.03406537045896142	-1
271360.83984375	-1.34658293087279	0.02812088963077502	-1
271369.9340820313	-1.350333255569131	0.02424790435453154	-1
271379.0283203125	-1.326749482959447	0.03931539083874598	-1
271388.1225585938	-1.320042171483299	0.0589549489289342	-1
271397.216796875	-1.313190616749599	0.06174143460400526	-1
271406.3110351563	-1.316291846786958	0.0612665435787106	-1
271415.4052734375	-1.302949345463436	0.06846956595725111	-1
271424.4995117188	-1.306627548531002	0.07010194455410099	-1
271433.59375	-1.292708074177274	0.07480021877044735	-1
271442.6879882813	-1.226139810817219	0.1141452553775785	-1
271451.7822265625	-1.077280769023987	0.2298687622962479	-1
271460.8764648438	-1.41408877540693	0.1086007431402868	-1
271469.970703125	-2.514592708896722	-0.7252665361109915	-1
271479.0649414063	-3.02196836733441	-1.529073520881379	-1
271488.1591796875	-3.032065395363021	-1.445443439643156	-1
271497.2534179688	-2.962828631738261	-1.222570838972291	-1
271506.34765625	-2.573660322864094	-0.9125199229733689	-1
271515.4418945313	-1.935095421683243	-0.1977486026139534	-1
271524.5361328125	-1.264724882212267	0.4641441620278852	-1
271533.6303710938	-1.162600655865748	0.8056284336100673	-1
271542.724609375	-1.119255556971497	0.713535221328093	-1
271551.8188476563	-1.089325081029544	0.7238927845745122	-1
271560.9130859375	-1.068193443798237	0.7371814237883014	-1
271570.0073242188	-1.056581861565335	0.6565485496010108	-1
271579.1015625	-1.026435020737055	0.6921898825504248	-1
271588.1958007813	-0.9842438679032169	0.641038133930371	-1
271597.2900390625	-0.9648431497625292	0.6626503445354341	-1
271606.3842773438	-0.9499860942347163	0.6096032281603054	-1
271615.478515625	-0.9189737938611262	0.5937576828176714	-1
271624.5727539063	-0.9002221703794207	0.5853792044172845	-1
271633.6669921875	-0.8645219641354042	0.5453137122449293	-1
271642.7612304688	-0.8301920688381278	0.561593666469036	-1
271651.85546875	-0.8024973633882241	0.5197374904324503	-1
271660.9497070313	-0.731169072528967	0.5414359335506507	-1
271670.0439453125	-0.698786461208637	0.5343486890793998	-1
271679.1381835938	-0.6743372290536439	0.5083690411959057	-1
271688.232421875	-0.6609226061013468	0.470419943669343	-1
271697.3266601563	-0.6343818467118558	0.4407996629833512	-1
271706.4208984375	-0.632578805992461	0.4062594140244165	-1
271715.5151367188	-0.6307757652730662	0.3507763463568909	-1
271724.609375	-0.6607062412150194	0.2953222973423595	-1
271733.7036132813	-0.6785202835226397	0.2185026007756521	-1
271742.7978515625	-0.7215047742730111	0.1582635224340205	-1
271751.8920898438	-0.7602340889256107	0.07563259945910289	-1
271760.986328125	-0.8089883099780453	0.009678469623127278	-1
271770.0805664063	-0.8713735188691043	-0.06708025440336234	-1
271779.1748046875	-0.9214259292395032	-0.1454434338249144	-1
271788.2690429688	-0.9865517600240422	-0.2066342028896888	-1
271797.36328125	-1.075838336448471	-0.2967481897432096	-1
271806.4575195313	-1.115577353903932	-0.3580310304395784	-1
271815.5517578125	-1.12726105776561	-0.3648241116509287	-1
271824.6459960938	-1.152215141322034	-0.3737583256378109	-1
271833.740234375	-1.163466115411057	-0.3878249832649109	-1
271842.8344726563	-1.169019480826793	-0.3794988887414378	-1
271851.9287109375	-1.175654670674166	-0.37631217746571	-1
271861.0229492188	-1.16324975052473	-0.3625218344977625	-1
271870.1171875	-1.148825424769572	-0.3339970471592088	-1
271879.2114257813	-1.139161126513616	-0.3161161124000896	-1
271888.3056640625	-1.144137518899145	-0.3066805437409542	-1
271897.3999023438	-1.137862937195651	-0.3002989045132084	-1
271906.494140625	-1.145724194732213	-0.2910083542009391	-1
271915.5883789063	-1.141685383520768	-0.2869904281857051	-1
271924.6826171875	-1.144137518899145	-0.2768784197869151	-1
271933.7768554688	-1.138151423710754	-0.2660530386968358	-1
271942.87109375	-1.148176330110589	-0.2624277177220783	-1
271951.9653320313	-1.148104208481814	-0.2585669443672491	-1
271961.0595703125	-1.152287262950809	-0.2530573197873538	-1
271970.1538085938	-1.169163724084344	-0.2533416540016893	-1
271979.248046875	-1.173707386697219	-0.2591844786242578	-1
271988.3422851563	-1.194189929269544	-0.2561174766468165	-1
271997.4365234375	-1.211210633660631	-0.2680282242605638	-1
272006.5307617188	-1.221884634719448	-0.2680298004977426	-1
272015.625	-1.222894337522309	-0.2557762153809604	-1
272024.7192382813	-1.231981662748058	-0.2509514475438781	-1
272033.8134765625	-1.224841621499255	-0.2353492038378929	-1
272042.9077148438	-1.223615553810067	-0.2191444910635058	-1
272052.001953125	-1.232486514149489	-0.2098653127624719	-1
272061.0961914063	-1.231044081573973	-0.2054562847249427	-1
272070.1904296875	-1.229457405740906	-0.1865746319127685	-1
272079.2846679688	-1.233207730437247	-0.1781580120456037	-1
272088.37890625	-1.238112001194001	-0.172652888910862	-1
272097.4731445313	-1.229024675968251	-0.1561104035685061	-1
272106.5673828125	-1.236381082103382	-0.1453160647066599	-1
272115.6616210938	-1.227077391991305	-0.131285697341486	-1
272124.755859375	-1.238039879565225	-0.1187710569080186	-1
272133.8500976563	-1.233568338581126	-0.1144576219500283	-1
272142.9443359375	-1.240924744716256	-0.1068862938209926	-1
272152.0385742188	-1.238905339110534	-0.09775277667581836	-1
272161.1328125	-1.244747191041373	-0.09405728621832002	-1
272170.2270507813	-1.256575138160603	-0.09068571940204322	-1
272179.3212890625	-1.251959353918952	-0.08894214182447577	-1
272188.4155273438	-1.266744287817989	-0.07898995604003009	-1
272197.509765625	-1.267898233878402	-0.08240919684893443	-1
272206.6040039063	-1.274821910240878	-0.07457184787029397	-1
272215.6982421875	-1.267465504105747	-0.06172136373576172	-1
272224.7924804688	-1.272441896491277	-0.05532939318531012	-1
272233.88671875	-1.263931544295734	-0.04032176538104168	-1
272242.9809570313	-1.255565435357742	-0.02788440291171927	-1
272252.0751953125	-1.2562866516455	-0.01202502955300948	-1
272261.1694335938	-1.261984260318787	-0.0161286797968894	-1
272270.263671875	-1.267393382476972	-0.01174290410989038	-1
272279.3579101563	-1.272874626263932	-0.01111004367685302	-1
272288.4521484375	-1.285856519443574	-0.01472493513841343	-1
272297.5463867188	-1.282250438004784	-0.00981125062268761	-1
272306.640625	-1.294438993267893	-0.007430464509186696	-1
272315.7348632813	-1.292491709290947	-0.004195505889176256	-1
272324.8291015625	-1.315137900726545	-0.009215039918044015	-1
272333.9233398438	-1.311531819287755	-0.009460212158638419	-1
272343.017578125	-1.318743982165335	-0.002424390909552239	-1
272352.1118164063	-1.315642752127976	0.005923009593783817	-1
272361.2060546875	-1.311099089515101	0.01419092087281096	-1
272370.3002929688	-1.311531819287755	0.02774999318345341	-1
272379.39453125	-1.297828709820355	0.0358930882787756	-1
272388.4887695313	-1.303886926637522	0.04926228507915617	-1
272397.5830078125	-1.307276643189984	0.04488668522272019	-1
272406.6772460938	-1.31881610379411	0.04126747540071653	-1
272415.771484375	-1.31333486000715	0.04788440687957309	-1
272424.8657226563	-1.323143401520658	0.04729533951735121	-1
272433.9599609375	-1.318671860536559	0.05332695512258419	-1
272443.0541992188	-1.313262738378374	0.06001384995305464	-1
272452.1484375	-1.31470517095389	0.07101947703139783	-1
272461.2426757813	-1.305185115955486	0.07242050661546916	-1
272470.3369140625	-1.298045074706683	0.08936320864114822	-1
272479.4311523438	-1.291265641601758	0.0957298807229876	-1
272488.525390625	-1.295376574441978	0.0960360352379494	-1
272497.6196289063	-1.297540223305252	0.09581197785127593	-1
272506.7138671875	-1.310882724628773	0.08484069688357102	-1
272515.8081054688	-1.299775993797302	0.08983724819516231	-1
272524.90234375	-1.321123995914936	0.08472804471937531	-1
272533.9965820313	-1.321268239172487	0.07414248586484856	-1
272543.0908203125	-1.341245930343381	0.06727544121442899	-1
272552.1850585938	-1.340019862654193	0.06549690750422255	-1
272561.279296875	-1.336341659586628	0.07473465804120424	-1
272570.3735351563	-1.345789592956256	0.076772500646845	-1
272579.4677734375	-1.343698065721758	0.06850464349756066	-1
272588.5620117188	-1.35069386371301	0.07539948049042139	-1
272597.65625	-1.343193214320328	0.07427332944171783	-1
272606.7504882813	-1.343409579206655	0.08155624076899953	-1
272615.8447265625	-1.322999158263106	0.0952334505768391	-1
272624.9389648438	-1.265806706643904	0.1331357892659795	-1
272634.033203125	-1.109591258715541	0.2504152245594487	-1
272643.1274414063	-0.9245271592768621	0.4127665838631242	-1
272652.2216796875	-1.292924439063601	0.2742605652453219	-1
272661.3159179688	-2.791179155251879	-0.8134086469382723	-1
272670.41015625	-2.77985605953408	-1.564704808187174	-1
272679.5043945313	-2.788727019873503	-1.057420019087569	-1
272688.5986328125	-2.512789668177327	-0.8918586137770265	-1
272697.6928710938	-1.952981585619639	-0.4136328034776289	-1
272706.787109375	-1.534459773833725	0.2998083038890117	-1
272715.8813476563	-1.307276643189984	0.384647355562832	-1
272724.9755859375	-1.2107057822592	0.6343064609783266	-1
272734.0698242188	-1.139665977915046	0.583453730192854	-1
272743.1640625	-1.14045931583158	0.6137438022651309	-1
272752.2583007813	-1.122428908637632	0.5931883843231049	-1
272761.3525390625	-1.0989893792855	0.5353057620641626	-1
272770.4467773438	-1.08665658076484	0.5945967278015085	-1
272779.541015625	-1.056004888535129	0.4944839091280447	-1
272788.6352539063	-1.042806630469159	0.5650304096522146	-1
272797.7294921875	-0.9988124369159266	0.489693773205889	-1
272806.8237304688	-0.9815032460097368	0.5307546368758983	-1
272815.91796875	-0.952510351241869	0.4914229839866089	-1
272825.0122070313	-0.9348405521918002	0.4728366418058921	-1
272834.1064453125	-0.9077949414008787	0.4793840821693854	-1
272843.2006835938	-0.8946688049636847	0.4220845531994244	-1
272852.294921875	-0.8825523713293519	0.4376495131702948	-1
272861.3891601563	-0.8417315294422543	0.3812494907842593	-1
272870.4833984375	-0.8090604316068211	0.4228836130896215	-1
272879.5776367188	-0.7861978752848954	0.3742704881000409	-1
272888.671875	-0.7683838329772751	0.369067182763916	-1
272897.7661132813	-0.7489109932078115	0.3409701116264063	-1
272906.8603515625	-0.7583589265774402	0.2979245289087015	-1
272915.9545898438	-0.7657153327125708	0.2594664699677787	-1
272925.048828125	-0.7917512407006313	0.188605854281586	-1
272934.1430664063	-0.8679116806878664	0.1222053816025518	-1
272943.2373046875	-0.9271956595415664	-0.0004852337143270943	-1
272952.3315429688	-0.9799886918054452	-0.04756669431134122	-1
272961.42578125	-1.045114522589984	-0.1314651233707976	-1
272970.5200195313	-1.106850636822061	-0.1963530673013083	-1
272979.6142578125	-1.149546641057329	-0.2472345914994121	-1
272988.7084960938	-1.196786307905472	-0.2918381066204165	-1
272997.802734375	-1.242439298920548	-0.3249472315271398	-1
273006.8969726563	-1.258522422137549	-0.3547806225279668	-1
273015.9912109375	-1.258955151910204	-0.3337962296156526	-1
273025.0854492188	-1.2699897611129	-0.3386032053357222	-1
273034.1796875	-1.260109097970617	-0.3222680262974624	-1
273043.2739257813	-1.254339367668554	-0.3039445898705794	-1
273052.3681640625	-1.253618151380796	-0.2913651485212013	-1
273061.4624023438	-1.250949651116091	-0.2818012699203166	-1
273070.556640625	-1.243521123352185	-0.2672842907375762	-1
273079.6508789063	-1.245035677556476	-0.2540652642202629	-1
273088.7451171875	-1.248209029222611	-0.2533703461936464	-1
273097.8393554688	-1.244170218011167	-0.2405650244588273	-1
273106.93359375	-1.260541827743271	-0.2414623596435841	-1
273116.0278320313	-1.264075787553285	-0.2436686252426454	-1
273125.1220703125	-1.273667964180465	-0.2397845231438724	-1
273134.2163085938	-1.279437694482529	-0.2370313670803423	-1
273143.310546875	-1.29328504720748	-0.2389241223375284	-1
273152.4047851563	-1.295088087926875	-0.2343437771286053	-1
273161.4990234375	-1.306194818758347	-0.2298601700016458	-1
273170.5932617188	-1.317590036104922	-0.2307108794663734	-1
273179.6875	-1.3155706304992	-0.2236672083376986	-1
273188.7817382813	-1.3292737399666	-0.2150357423691193	-1
273197.8759765625	-1.330716172542116	-0.2144203481330088	-1
273206.9702148438	-1.334394375609681	-0.2025091323511139	-1
273216.064453125	-1.325956145042914	-0.1867658012319971	-1
273225.1586914063	-1.336269537957852	-0.1790519551499445	-1
273234.2529296875	-1.332158605117632	-0.1704717649253023	-1
273243.3471679688	-1.33562044329887	-0.1605619964454237	-1
273252.44140625	-1.342688362918897	-0.1533971757513429	-1
273261.5356445313	-1.341967146631139	-0.1505046639043866	-1
273270.6298828125	-1.335115591897439	-0.1307186835222607	-1
273279.7241210938	-1.335981051442749	-0.1205864530605002	-1
273288.818359375	-1.339803497767865	-0.1156116141772762	-1
273297.9125976563	-1.334538618867233	-0.1006342884424629	-1
273307.0068359375	-1.343337457577879	-0.09037630674480789	-1
273316.1010742188	-1.336485902844179	-0.08567358656013706	-1
273325.1953125	-1.339082281480108	-0.07542917179126557	-1
273334.2895507813	-1.333168307920493	-0.06498140658011581	-1
273343.3837890625	-1.339803497767865	-0.06249553279241153	-1
273352.4780273438	-1.333601037693148	-0.05326342511801728	-1
273361.572265625	-1.335115591897439	-0.04703747364914469	-1
273370.6665039063	-1.33973137613909	-0.04287275842498774	-1
273379.7607421875	-1.332591334890287	-0.03872858558403863	-1
273388.8549804688	-1.341245930343381	-0.03048788187727533	-1
273397.94921875	-1.335836808185197	-0.03080897133625178	-1
273407.0434570313	-1.337062875874385	-0.02175587343957904	-1
273416.1376953125	-1.329417983224152	-0.01247408966737432	-1
273425.2319335938	-1.337567727275816	-0.01269479328278016	-1
273434.326171875	-1.328913131822721	-0.005234215366278002	-1
273443.4204101563	-1.33287982140539	-0.001939597861458449	-1
273452.5146484375	-1.334682862124784	0.0007964818876859204	-1
273461.6088867188	-1.337279240760713	-0.002030153955584779	-1
273470.703125	-1.329706469739255	0.008230583561925266	-1
273479.7973632813	-1.330355564398237	0.0130515070260258	-1
273488.8916015625	-1.333456794435596	0.01246263602580664	-1
273497.9858398438	-1.326605239701896	0.01747406540721186	-1
273507.080078125	-1.332230726746408	0.02053485596646781	-1
273516.1743164063	-1.323576131293313	0.02332291750107421	-1
273525.2685546875	-1.325739780156586	0.02846340627001211	-1
273534.3627929688	-1.32292703663433	0.03088877995045914	-1
273543.45703125	-1.335836808185197	0.02351263090741634	-1
273552.5512695313	-1.327687064133533	0.02527738798305948	-1
273561.6455078125	-1.330067077883134	0.02961230522952145	-1
273570.7397460938	-1.337928335419695	0.0261711734315468	-1
273579.833984375	-1.335981051442749	0.02124921338682773	-1
273588.9282226563	-1.348241728334633	0.02270119660470091	-1
273598.0224609375	-1.354444188409351	0.01070046623027967	-1
273607.1166992188	-1.357978148219365	0.01073296800769997	-1
273616.2109375	-1.348385971592185	0.01971785410722724	-1
273625.3051757813	-1.349251431137494	0.02374060432007149	-1
273634.3994140625	-1.334466497238457	0.03510434016790812	-1
273643.4936523438	-1.331293145572322	0.04274671448509072	-1
273652.587890625	-1.3292737399666	0.04697142663785375	-1
273661.6821289063	-1.319970049854523	0.04850961182814029	-1
273670.7763671875	-1.355237526325885	0.03873641044899738	-1
273679.8706054688	-1.351775688144647	0.01382887368288631	-1
273688.96484375	-1.349179309508718	0.02983676458723745	-1
273698.0590820313	-1.367281838331442	0.0226626335223996	-1
273707.1533203125	-1.393822597720933	-0.008301592220398314	-1
273716.2475585938	-1.379614636852102	0.000641590648367189	-1
273725.341796875	-1.365118189468168	0.01805796582557199	-1
273734.4360351563	-1.35206417465975	0.03765008301979853	-1
273743.5302734375	-1.40089051734096	0.01224417822524317	-1
273752.6245117188	-1.418776681277356	-0.02318451373444787	-1
273761.71875	-1.242078690776669	0.07547694772612067	-1
273770.8129882813	-1.21344640415268	0.2030047758233059	-1
273779.9072265625	-1.320258536369626	0.1025365594278789	-1
273789.0014648438	-1.212580944607371	0.09089572557157792	-1
273798.095703125	-1.177746197908664	0.2206039455356091	-1
273807.1899414063	-2.199421191146516	-0.3704470375435039	-1
273816.2841796875	-3.001630068019637	-1.397434316993328	-1
273825.3784179688	-3.075410494257271	-1.555011919482191	-1
273834.47265625	-2.940831534961645	-1.226961965667862	-1
273843.5668945313	-2.904049504285992	-1.089263275438519	-1
273852.6611328125	-2.241612343980354	-0.5881446214856906	-1
273861.7553710938	-1.659085948358291	0.1788732119704188	-1
273870.849609375	-1.197868132337109	0.6502052673795666	-1
273879.9438476563	-1.164475818213918	0.7922039778250942	-1
273889.0380859375	-1.134905950415844	0.7417420499886864	-1
273898.1323242188	-1.064443119101896	0.7361490392003354	-1
273907.2265625	-1.082834134439723	0.7567047922767753	-1
273916.3208007813	-1.098628771141621	0.6409954143728547	-1
273925.4150390625	-1.011938573353121	0.6680283390512793	-1
273934.5092773438	-0.9959996933936708	0.6876017213989454	-1
273943.603515625	-1.007250667482694	0.6085042956811533	-1
273952.6977539063	-0.8522612872435198	0.6624364950834194	-1
273961.7919921875	-0.8780808303452529	0.6814948504271459	-1
273970.8862304688	-0.9489042698030794	0.5507097846951411	-1
273979.98046875	-0.883201465988334	0.4937681175017632	-1
273989.0747070313	-0.8548576658794482	0.549690301007145	-1
273998.1689453125	-0.787712429489187	0.5079442355071693	-1
274007.2631835938	-0.7802839017252805	0.5188429951697955	-1
274016.357421875	-0.7557625479415117	0.4717740822713389	-1
274025.4516601563	-0.6663317282595311	0.4745696171463693	-1
274034.5458984375	-0.6614274575027773	0.5009663713703509	-1
274043.6401367188	-0.6206787372444556	0.4210943923709684	-1
274052.734375	-0.5713475431618146	0.4526891105681403	-1
274061.8286132813	-0.6079132089511405	0.3831694176177705	-1
274070.9228515625	-0.5924070587643455	0.312122680106247	-1
274080.0170898438	-0.6358242792873716	0.2677069347760052	-1
274089.111328125	-0.6929446092777979	0.1532614581199001	-1
274098.2055664063	-0.6956852311712779	0.09500455524158166	-1
274107.2998046875	-0.6956131095425021	0.07197792466338501	-1
274116.3940429688	-0.8493764220924881	-0.0459163663106141	-1
274125.48828125	-0.89149545329755	-0.1882099810612005	-1
274134.5825195313	-0.912843455415184	-0.1962798693000587	-1
274143.6767578125	-1.013885857330067	-0.2716657318295938	-1
274152.7709960938	-1.110384596632075	-0.3973139649507024	-1
274161.865234375	-1.098556649512845	-0.4070981584868998	-1
274170.9594726563	-1.125241652159888	-0.3989569015692883	-1
274180.0537109375	-1.11680342159312	-0.4064729773698574	-1
274189.1479492188	-1.207604552221841	-0.4371901126459042	-1
274198.2421875	-1.09076751360506	-0.4170898250380251	-1
274207.3364257813	-1.238112001194001	-0.3954163756944523	-1
274216.4306640625	-1.165197034501676	-0.4610321030907381	-1
274225.5249023438	-1.171832224349049	-0.3785140361213797	-1
274234.619140625	-1.224481013355376	-0.3917233904593525	-1
274243.7133789063	-1.004726410475542	-0.3327009274769488	-1
274252.8076171875	-0.9703965151782651	-0.097492612167911	-1
274261.9018554688	-1.009125829830865	-0.2094846898010858	-1
274270.99609375	-0.8823360064430245	-0.1451917408675718	-1
274280.0903320313	-0.8828408578444551	-0.04423082350408179	-1
274289.1845703125	-0.9220750238984853	-0.1499814995772875	-1
274298.2788085938	-0.9875614628269033	-0.169176213140356	-1
274307.373046875	-1.050595766376945	-0.2633219838019521	-1
274316.4672851563	-1.152070898064482	-0.3233839042877311	-1
274325.5615234375	-1.068121322169462	-0.3245033937383125	-1
274334.6557617188	-1.225995567559668	-0.3249104720974787	-1
274343.75	-1.248786002252817	-0.4405157557309159	-1
274352.8442382813	-1.258522422137549	-0.4132122314045424	51.94947946942874
274361.9384765625	-1.203782105896724	-0.3349034805800706	51.94947946942874
274371.0327148438	-1.167144318478622	-0.3129517069323092	51.94947946942874
274380.126953125	-1.178755900711525	-0.2434837341776786	51.94947946942874
274389.2211914063	-1.199671173056504	-0.300964123581955	51.94947946942874
274398.3154296875	-1.219360377712295	-0.2714615900901433	51.94947946942874
274407.4096679688	-1.277851018649461	-0.311242156415361	51.94947946942874
274416.50390625	-1.277634653763134	-0.3250671471331876	51.94947946942874
274425.5981445313	-1.275110396755981	-0.2764172871037282	51.94947946942874
274434.6923828125	-1.253762394638347	-0.2672728214397915	51.94947946942874
274443.7866210938	-1.310954846257549	-0.2471162915689211	51.94947946942874
274452.880859375	-1.396058368212982	-0.3322680560305978	51.94947946942874
274461.9750976563	-1.389062570221731	-0.3276075483154781	51.94947946942874
274471.0693359375	-1.382787988518237	-0.2810457099143046	51.94947946942874
274480.1635742188	-1.273235234407811	-0.2010970555518891	51.94947946942874
274489.2578125	-1.274533423725775	-0.1153725410862179	51.94947946942874
274498.3520507813	-1.39677958450074	-0.1953498441429306	51.94947946942874
274507.4462890625	-1.148536938254468	-0.1175552424345073	51.94947946942874
274516.5405273438	-1.227077391991305	0.04876756707363932	51.94947946942874
274525.634765625	-1.275615248157412	-0.1010607778304194	51.94947946942874
274534.7290039063	-1.313839711408581	-0.1171518174874295	51.94947946942874
274543.8232421875	-1.365046067839392	-0.1055015770709676	51.94947946942874
274552.9174804688	-1.306843913417329	-0.1425386622287945	51.94947946942874
274562.01171875	-1.345501106441153	-0.04009862216439143	51.94947946942874
274571.1059570313	-1.39353411120583	-0.1408866106750754	51.94947946942874
274580.2001953125	-1.235515622558072	-0.03102799729140665	51.94947946942874
274589.2944335938	-1.443009548546022	-0.020328828864209	51.94947946942874
274598.388671875	-1.405362058325059	-0.1808996008217614	51.94947946942874
274607.4829101563	-1.405722666468938	-0.05023342901228293	51.94947946942874
274616.5771484375	-1.254627854183657	0.01786390670495288	51.94947946942874
274625.6713867188	-1.348746579736064	0.05565398717711415	51.94947946942874
274634.765625	-1.288885627852157	0.03186124571082978	51.94947946942874
274643.8598632813	-1.14182962677832	0.1460833451945063	51.94947946942874
274652.9541015625	-1.183227441695624	0.2440587605563606	51.94947946942874
274662.0483398438	-1.308863319023051	0.05647687530745449	51.94947946942874
274671.142578125	-1.139377491399943	0.1364299240714371	51.94947946942874
274680.2368164063	-1.277346167248031	0.1774616637330461	51.94947946942874
274689.3310546875	-1.24669447501832	0.05692453265285841	51.94947946942874
274698.4252929688	-1.107283366594716	0.2071696856251862	51.94947946942874
274707.51953125	-1.267970355507178	0.1949502400509008	51.94947946942874
274716.6137695313	-1.334827105382336	-0.003243472668046366	51.94947946942874
274725.7080078125	-1.080886850462777	0.1735413314384035	51.94947946942874
274734.8022460938	-1.331004659057219	0.1959099355829041	51.94947946942874
274743.896484375	-1.128487125454799	0.05910255606400115	51.94947946942874
274752.9907226563	-1.205152416843464	0.2437216173807099	51.94947946942874
274762.0849609375	-1.278644356565995	0.08968748591114248	51.94947946942874
274771.1791992188	-1.308502710879172	0.01375304659831275	51.94947946942874
274780.2734375	-1.334538618867233	0.08188360490188237	51.94947946942874
274789.3676757813	-1.186617158248086	0.06300915934915216	51.94947946942874
274798.4619140625	-1.387764380903766	0.1315668156283618	51.94947946942874
274807.5561523438	-1.312397278833065	-0.04205659362626477	51.94947946942874
274816.650390625	-1.374998852610451	0.05814145870781847	51.94947946942874
274825.7446289063	-1.421733668057164	-0.003996087110492132	51.94947946942874
274834.8388671875	-1.346078079471359	-0.03022230961251406	51.94947946942874
274843.9331054688	-1.3018675210318	0.1546590739703174	51.94947946942874
274853.02734375	-1.284053478724179	0.07134013543296634	51.94947946942874
274862.1215820313	-1.273956450695569	0.1635525522201581	51.94947946942874
274871.2158203125	-1.072664984782336	0.2231879781579212	51.94947946942874
274880.3100585938	-0.9134925500741662	0.442251332749843	51.94947946942874
274889.404296875	-1.053264266641649	0.3962854352614415	51.94947946942874
274898.4985351563	-2.02236259250195	-0.2916615615727292	51.94947946942874
274907.5927734375	-2.980931160560985	-1.281542622047547	51.94947946942874
274916.6870117188	-3.215470697339856	-1.706536987681934	51.94947946942874
274925.78125	-3.246987849114877	-1.463027483535873	51.94947946942874
274934.8754882813	-2.162206430698208	-0.8352484084407994	51.94947946942874
274943.9697265625	-1.603408050943381	0.2818453337943965	51.94947946942874
274953.0639648438	-1.258810908652652	0.5374158809158776	51.94947946942874
274962.158203125	-1.124376192614578	0.6760216746912071	51.94947946942874
274971.2524414063	-1.085863242848306	0.8147159261119902	51.94947946942874
274980.3466796875	-0.9879220709707822	0.6832793493504763	51.94947946942874
274989.4409179688	-0.9573425003698469	0.8633823234847977	51.94947946942874
274998.53515625	-1.109591258715541	0.6171850447598357	51.94947946942874
275007.6293945313	-0.9626073792704797	0.6303319412498636	51.94947946942874
275016.7236328125	-1.080021390917467	0.6434496868520151	51.94947946942874
275025.8178710938	-1.0602600646329	0.483121802006403	51.94947946942874
275034.912109375	-1.003139734642474	0.5588944322320081	51.94947946942874
275044.0063476563	-0.9571982571122953	0.5541502358744197	51.94947946942874
275053.1005859375	-0.9349847954493518	0.5523041053448166	51.94947946942874
275062.1948242188	-0.8383418128897922	0.565797742462244	51.94947946942874
275071.2890625	-0.910102833521704	0.5549511223892287	51.94947946942874
275080.3833007813	-0.7059986240862161	0.5501257812803795	51.94947946942874
275089.4775390625	-0.8369715019430521	0.5902664978915199	51.94947946942874
275098.5717773438	-0.8629352883023368	0.3945000896016812	51.94947946942874
275107.666015625	-0.785981510398568	0.4050530418920305	51.94947946942874
275116.7602539063	-0.7295823966958996	0.4905987455736579	51.94947946942874
275125.8544921875	-0.834230880049572	0.3397041973856694	51.94947946942874
275134.9487304688	-0.7826639154748817	0.3160034707893456	51.94947946942874
275144.04296875	-0.7269138964311954	0.3265413744335349	51.94947946942874
275153.1372070313	-0.6081295738374679	0.3985775988819613	51.94947946942874
275162.2314453125	-0.7768941851728184	0.3026177656703453	51.94947946942874
275171.3256835938	-0.7820869424446754	0.1438266294068636	51.94947946942874
275180.419921875	-0.7032580021927359	0.1959002094264822	51.94947946942874
275189.5141601563	-0.8296872174366973	0.1449073177607609	51.94947946942874
275198.6083984375	-0.9580637166576048	-0.0676424752206128	51.94947946942874
275207.7026367188	-1.027949574941346	-0.148605545030678	51.94947946942874
275216.796875	-1.178178927681318	-0.2535074820308191	51.94947946942874
275225.8911132813	-1.059322483458815	-0.2874563464662863	51.94947946942874
275234.9853515625	-1.177962562794991	-0.2165875902047123	51.94947946942874
275244.0795898438	-1.201979065177329	-0.3584147642840304	51.94947946942874
275253.173828125	-1.169307967341896	-0.307563805545818	51.94947946942874
275262.2680664063	-1.149041789655899	-0.2466595654760132	51.94947946942874
275271.3623046875	-1.135266558559723	-0.2726834463024344	51.94947946942874
275280.4565429688	-1.190872334345858	-0.247315861355218	51.94947946942874
275289.55078125	-1.121347084205995	-0.2791440574214746	51.94947946942874
275298.6450195313	-1.083483229098705	-0.1692086057106783	51.94947946942874
275307.7392578125	-1.053624874785528	-0.1612337601095014	51.94947946942874
275316.8334960938	-1.137574450680548	-0.2020506830641303	51.94947946942874
275325.927734375	-1.167937656395156	-0.2526033910585471	51.94947946942874
275335.0219726563	-0.9709734882084714	-0.1665683567530144	51.94947946942874
275344.1162109375	-1.082617769553396	-0.06824646870190733	51.94947946942874
275353.2104492188	-1.071006187320493	-0.2237009814028392	51.94947946942874
275362.3046875	-1.129136220113781	-0.1840306144657805	51.94947946942874
275371.3989257813	-0.983522651615459	-0.1441129123193782	51.94947946942874
275380.4931640625	-1.18466987427114	-0.1796781843945043	51.94947946942874
275389.5874023438	-1.222100999605775	-0.313871201198756	51.94947946942874
275398.681640625	-1.064082510958017	-0.241558542981212	51.94947946942874
275407.7758789063	-1.233928946725005	-0.1563192991108842	51.94947946942874
275416.8701171875	-1.193324469724234	-0.3571755568197099	51.94947946942874
275425.9643554688	-1.319970049854523	-0.269957817918892	51.94947946942874
275435.05859375	-1.313623346522253	-0.3743029704963765	51.94947946942874
275444.1528320313	-1.298333561221786	-0.3311560641408494	51.94947946942874
275453.2470703125	-1.342904727805224	-0.2744945436575517	51.94947946942874
275462.3413085938	-1.357112688674055	-0.3808019571719897	51.94947946942874
275471.435546875	-1.429234317449846	-0.3057180208887808	51.94947946942874
275480.5297851563	-1.454116279377494	-0.4146711145802148	54.97986577181208
275489.6240234375	-1.333456794435596	-0.2723448227734382	54.97986577181208
275498.7182617188	-1.418993046163684	-0.2405181378353271	54.97986577181208
275507.8125	-1.439475588736008	-0.3252888403294528	54.97986577181208
275516.9067382813	-1.402909922946682	-0.245151501017758	54.97986577181208
275526.0009765625	-1.398871111735238	-0.2163571990998287	54.97986577181208
275535.0952148438	-1.346078079471359	-0.159920154974218	54.97986577181208
275544.189453125	-1.327542820875981	-0.1152480802537755	54.97986577181208
275553.2836914063	-1.27770677539191	-0.06580393007088098	54.97986577181208
275562.3779296875	-1.203493619381621	-0.00476663551693554	54.97986577181208
275571.4721679688	-1.256142408387948	0.02044641567023322	54.97986577181208
275580.56640625	-1.223615553810067	-0.02566177231454429	54.97986577181208
275589.6606445313	-1.196281456504042	0.04088975304263925	54.97986577181208
275598.7548828125	-1.275975856301291	0.00351543323947253	54.97986577181208
275607.8491210938	-1.045835738877742	0.05937364071643812	54.97986577181208
275616.943359375	-1.19202628040627	0.1659854561614105	54.97986577181208
275626.0375976563	-1.284702573383161	-0.06860880965059783	54.97986577181208
275635.1318359375	-1.215754296273505	-0.03024512530478732	54.97986577181208
275644.2260742188	-1.203998470783051	0.06354756910848512	54.97986577181208
275653.3203125	-1.191593550633616	0.005347089521033258	54.97986577181208
275662.4145507813	-1.173130413667013	0.07089412089880355	54.97986577181208
275671.5087890625	-1.143560545868939	0.06062176413405615	54.97986577181208
275680.6030273438	-1.191593550633616	0.0601826943057099	54.97986577181208
275689.697265625	-1.169091602455569	0.03125270450476242	54.97986577181208
275698.7915039063	-1.183732293097054	0.04017161708182411	54.97986577181208
275707.8857421875	-1.203349376124069	0.02851075536180862	54.97986577181208
275716.9799804688	-1.29415050675279	-0.05476768930388373	54.97986577181208
275726.07421875	-1.162961264009627	-0.002260749017821456	54.97986577181208
275735.1684570313	-0.9847487193046475	0.1693136313437966	54.97986577181208
275744.2626953125	-1.172264954121703	0.1545515242838348	54.97986577181208
275753.3569335938	-1.095743905990589	0.003275881050021835	54.97986577181208
275762.451171875	-1.122933760039063	0.1147898622172883	54.97986577181208
275771.5454101563	-1.136925356021566	0.0504238277297254	54.97986577181208
275780.6396484375	-1.151854533178155	0.009364625306703643	54.97986577181208
275789.7338867188	-1.191160820860961	0.03478808510350427	54.97986577181208
275798.828125	-1.208902741539805	-0.06281287102702225	54.97986577181208
275807.9223632813	-1.258955151910204	-0.02976232105260617	54.97986577181208
275817.0166015625	-1.203277254495293	-0.06923180029704115	54.97986577181208
275826.1108398438	-1.171687981091497	0.02217892514958736	54.97986577181208
275835.205078125	-1.230467108543767	-0.01101332427065548	54.97986577181208
275844.2993164063	-1.226716783847426	-0.06613344452536936	54.97986577181208
275853.3935546875	-1.216331269303712	-0.005602658524537734	54.97986577181208
275862.4877929688	-1.240059285170947	-0.04984130150046115	54.97986577181208
275871.58203125	-1.241645961004014	-0.03490451603658235	54.97986577181208
275880.6762695313	-1.284053478724179	-0.06910485243216014	54.97986577181208
275889.7705078125	-1.313262738378374	-0.09206232241368141	54.97986577181208
275898.8647460938	-1.21568217464473	-0.04791247820185496	54.97986577181208
275907.958984375	-1.288164411564399	-0.01090487637246788	54.97986577181208
275917.0532226563	-1.307204521561208	-0.09062421385208379	54.97986577181208
275926.1474609375	-1.332158605117632	-0.09100499987397756	54.97986577181208
275935.2416992188	-1.340019862654193	-0.0794742333556923	54.97986577181208
275944.3359375	-1.38444678598008	-0.1260806873470337	54.97986577181208
275953.4301757813	-1.400529909197081	-0.1137273285838841	54.97986577181208
275962.5244140625	-1.364252729922859	-0.1123451557397942	54.97986577181208
275971.6186523438	-1.217340972106573	0.02744114871358012	54.97986577181208
275980.712890625	-1.103316677012048	0.1588075043451894	54.97986577181208
275989.8071289063	-1.661610205365444	-0.1000680557314695	54.97986577181208
275998.9013671875	-2.681049428111247	-1.000674986597386	54.97986577181208
276007.9956054688	-3.275115284337435	-1.724926117310126	54.97986577181208
276017.08984375	-3.24403086233507	-1.674903029265418	54.97986577181208
276026.1840820313	-2.710258687765442	-1.162095105961091	54.97986577181208
276035.2783203125	-2.119438304834164	-0.4192807506676702	54.97986577181208
276044.3725585938	-1.755728930917851	0.06386180665821552	54.97986577181208
276053.466796875	-1.596195888065802	0.281119249345322	54.97986577181208
276062.5610351563	-1.520612421108773	0.3776961200904229	54.97986577181208
276071.6552734375	-1.545422261407645	0.3745687565281381	54.97986577181208
276080.7495117188	-1.273523720922914	0.4990893874864407	54.97986577181208
276089.84375	-1.183083198438072	0.6988193484500274	54.97986577181208
276098.9379882813	-1.224553134984152	0.6433605362902768	54.97986577181208
276108.0322265625	-1.189069293626463	0.573504446729775	54.97986577181208
276117.1264648438	-1.104831231216339	0.665612188102533	54.97986577181208
276126.220703125	-1.063361294670259	0.6551874130464171	54.97986577181208
276135.3149414063	-1.031411413122584	0.6652368228888457	54.97986577181208
276144.4091796875	-0.941475742039173	0.6771526934984831	54.97986577181208
276153.5034179688	-0.9186131857172473	0.6963138884035777	54.97986577181208
276162.59765625	-0.8650268155368347	0.6782982855080046	54.97986577181208
276171.6918945313	-0.764272900137055	0.7017099466721379	54.97986577181208
276180.7861328125	-0.6943870418533137	0.7591737593233803	54.97986577181208
276189.8803710938	-0.705349529427234	0.689352096609824	54.97986577181208
276198.974609375	-0.6589032004956247	0.6620209765706449	54.97986577181208
276208.0688476563	-0.5696166240711956	0.6725948892815991	54.97986577181208
276217.1630859375	-0.5669481238064914	0.6673205594062589	54.97986577181208
276226.2573242188	-0.5769730302063263	0.5747815340145247	54.97986577181208
276235.3515625	-0.6107980741021722	0.4998940194532754	54.97986577181208
276244.4458007813	-0.697055542118018	0.388689627248403	54.97986577181208
276253.5400390625	-0.7171053549176878	0.2725721330034734	54.97986577181208
276262.6342773438	-0.6630862549646205	0.2873799604169571	54.97986577181208
276271.728515625	-0.8540643279629145	0.1636961568308125	54.97986577181208
276280.8227539063	-0.8986354945463533	-0.01608676573031888	54.97986577181208
276289.9169921875	-0.9234453348452253	-0.03030297324851103	54.97986577181208
276299.0112304688	-0.9688819609739735	-0.07423377080246356	54.97986577181208
276308.10546875	-1.005663991649627	-0.155233611849338	54.97986577181208
276317.1997070313	-1.021963479752956	-0.1576479793265512	54.97986577181208
276326.2939453125	-1.023117425813368	-0.190192367715563	54.97986577181208
276335.3881835938	-1.055860645277577	-0.19896902233894	54.97986577181208
276344.482421875	-1.053264266641649	-0.225156376128729	54.97986577181208
276353.5766601563	-1.004293680702887	-0.1956053193826565	54.97986577181208
276362.6708984375	-1.00818824865678	-0.1613487017835983	54.97986577181208
276371.7651367188	-1.051461225922254	-0.2220430215750147	54.97986577181208
276380.859375	-1.03335869709953	-0.2197211741145998	54.97986577181208
276389.9536132813	-0.9771759482831894	-0.1814233082580877	54.97986577181208
276399.0478515625	-0.9487600265455278	-0.1315606826337114	54.97986577181208
276408.1420898438	-0.9424133232132582	-0.1339249410828843	54.97986577181208
276417.236328125	-1.03148353475136	-0.1873742052615747	54.97986577181208
276426.3305664063	-1.025785926078072	-0.2417913515170773	54.97986577181208
276435.4248046875	-0.9795559620327905	-0.1946742824591266	54.97986577181208
276444.5190429688	-0.9416921069255003	-0.1445441387221228	54.97986577181208
276453.61328125	-1.019367101117027	-0.1960199114416766	54.97986577181208
276462.7075195313	-1.004798532104317	-0.2266217921745461	54.97986577181208
276471.8017578125	-0.9569097705971922	-0.1858672240548206	54.97986577181208
276480.8959960938	-0.991095422636917	-0.1690434282103098	54.97986577181208
276489.990234375	-1.011794330095569	-0.2322565753985187	54.97986577181208
276499.0844726563	-1.00184154532451	-0.2123241096926007	54.97986577181208
276508.1787109375	-1.019222857859476	-0.2166453135482662	54.97986577181208
276517.2729492188	-1.062856443268829	-0.2567566725600343	54.97986577181208
276526.3671875	-1.067688592396807	-0.2664443973405202	54.97986577181208
276535.4614257813	-1.049225455430204	-0.2538996098323954	54.97986577181208
276544.5556640625	-1.144930856815679	-0.2768741879319648	54.97986577181208
276553.6499023438	-1.130578652689297	-0.336632064765567	54.97986577181208
276562.744140625	-1.173491021810892	-0.3010190474732947	54.97986577181208
276571.8383789063	-1.103749406784702	-0.2897045456414492	54.97986577181208
276580.9326171875	-1.132525936666243	-0.2461873580067654	54.97986577181208
276590.0268554688	-1.169380088970672	-0.2751392461729101	54.97986577181208
276599.12109375	-1.168947359198017	-0.3011581353991088	54.97986577181208
276608.2153320313	-1.215393688129626	-0.2700100817290658	54.97986577181208
276617.3095703125	-1.234073189982556	-0.3287491376546964	54.97986577181208
276626.4038085938	-1.224769499870479	-0.2810824987087934	54.97986577181208
276635.498046875	-1.198084497223437	-0.2527412486898687	54.97986577181208
276644.5922851563	-1.260469706114496	-0.2595459989225952	54.97986577181208
276653.6865234375	-1.251959353918952	-0.2727903408005877	54.97986577181208
276662.7807617188	-1.25679150304693	-0.2501480283037401	54.97986577181208
276671.875	-1.298405682850562	-0.2425694072006634	54.97986577181208
276680.9692382813	-1.219360377712295	-0.2320735197912303	54.97986577181208
276690.0634765625	-1.153441209011222	-0.09401780345238431	54.97986577181208
276699.1577148438	-1.117596759509654	-0.0683271816177316	54.97986577181208
276708.251953125	-1.088964472885665	-0.02999481382114909	54.97986577181208
276717.3461914063	-1.086440215878513	-0.008135542713504945	54.97986577181208
276726.4404296875	-1.111033691291057	-0.03676597810212301	54.97986577181208
276735.5346679688	-1.145652073103437	-0.05053439209293736	54.97986577181208
276744.62890625	-1.028382304714001	-0.01392652054778404	54.97986577181208
276753.7231445313	-1.052326685467564	0.06945348877367717	54.97986577181208
276762.8173828125	-1.096753608793451	-0.01530044871040216	54.97986577181208
276771.9116210938	-1.109230650571662	-0.033691608903341	54.97986577181208
276781.005859375	-1.124304070985803	-0.02358321970869669	54.97986577181208
276790.1000976563	-1.110889448033505	-0.03976010432489258	54.97986577181208
276799.1943359375	-1.099999082088361	0.006999537081858532	54.97986577181208
276808.2885742188	-1.141036288861786	-0.02874224154556057	54.97986577181208
276817.3828125	-1.133824125984207	-0.03777875532479937	54.97986577181208
276826.4770507813	-1.187554739422171	-0.04865606793974502	54.97986577181208
276835.5712890625	-1.179477116999283	-0.07578578692698682	54.97986577181208
276844.6655273438	-1.148536938254468	-0.03075618639533745	54.97986577181208
276853.759765625	-1.205080295214688	-0.03856307973268909	54.97986577181208
276862.8540039063	-1.116154326934138	-0.03227787650845968	54.97986577181208
276871.9482421875	-1.169524332228223	0.02321178749391292	54.97986577181208
276881.0424804688	-1.160653371888801	-0.02922132052096941	54.97986577181208
276890.13671875	-1.102162730951635	0.02255970758416603	54.97986577181208
276899.2309570313	-1.105408204246545	0.07737656488567843	54.97986577181208
276908.3251953125	-1.128270760568471	0.01653966781207632	54.97986577181208
276917.4194335938	-1.091200243377715	0.05865715668536759	54.97986577181208
276926.513671875	-1.095671784361814	0.0652212772317453	54.97986577181208
276935.6079101563	-1.086007486105858	0.06489941728675408	54.97986577181208
276944.7021484375	-1.139449613028719	0.04339221944535852	54.97986577181208
276953.7963867188	-1.059106118572488	0.04936536934610963	54.97986577181208
276962.890625	-1.135266558559723	0.0771133176984727	54.97986577181208
276971.9848632813	-0.9982354638857203	0.07467138448381731	54.97986577181208
276981.0791015625	-1.041292076264867	0.1567596262624263	54.97986577181208
276990.1733398438	-1.10447062307246	0.06190272330545354	54.97986577181208
276999.267578125	-1.127838030795817	0.00131229734919637	54.97986577181208
277008.3618164063	-1.021819236495404	0.09892318787262176	54.97986577181208
277017.4560546875	-1.090046297317302	0.08622780011503467	54.97986577181208
277026.5502929688	-1.090046297317302	0.04532363994966293	54.97986577181208
277035.64453125	-1.037902359712405	0.07259043102880107	54.97986577181208
277044.7387695313	-1.058529145542281	0.1089055760777043	54.97986577181208
277053.8330078125	-1.024127128616229	0.07733980333010199	54.97986577181208
277062.9272460938	-0.9077949414008787	0.177171266274914	54.97986577181208
277072.021484375	-0.7709080899844277	0.303013632489167	54.97986577181208
277081.1157226563	-1.872782334420959	-0.2612028118091489	54.97986577181208
277090.2099609375	-2.650541979139087	-1.347077138134678	54.97986577181208
277099.3041992188	-2.633593396376777	-1.449037552344215	54.97986577181208
277108.3984375	-2.583468864377602	-1.086330395808867	54.97986577181208
277117.4926757813	-2.334072272070917	-0.9721271818595096	54.97986577181208
277126.5869140625	-1.837226371434495	-0.3660740207649332	54.97986577181208
277135.6811523438	-1.410699058854468	0.1123896832707591	54.97986577181208
277144.775390625	-1.107932461253698	0.4501991944416432	54.97986577181208
277153.8696289063	-1.061774618837192	0.5915302669255316	54.97986577181208
277162.9638671875	-1.079588661144812	0.4988104008283815	54.97986577181208
277172.0581054688	-0.9690983258603009	0.5694621216509254	54.97986577181208
277181.15234375	-0.8943803184485816	0.621078165979946	54.97986577181208
277190.2465820313	-0.891134845153671	0.6415132838781126	54.97986577181208
277199.3408203125	-0.9410430122665182	0.5524101941695718	54.97986577181208
277208.4350585938	-0.8527661386449503	0.5589108479368355	54.97986577181208
277217.529296875	-0.6464982803461886	0.6892575489147352	54.97986577181208
277226.6235351563	-0.8169938107721581	0.6639679274107829	54.97986577181208
277235.7177734375	-0.8022088768731209	0.4687893409590138	54.97986577181208
277244.8120117188	-0.7741535632793384	0.5126102300333757	54.97986577181208
277253.90625	-0.7209999228715806	0.5319931206463757	54.97986577181208
277263.0004882813	-0.7533104125631348	0.4537963813969899	54.97986577181208
277272.0947265625	-0.7620371296450055	0.4407407219691584	54.97986577181208
277281.1889648438	-0.7692492925225846	0.3510680553292912	54.97986577181208
277290.283203125	-0.7189805172658583	0.3897692851414448	54.97986577181208
277299.3774414063	-0.6581819842078668	0.3870271192341431	54.97986577181208
277308.4716796875	-0.7433576277920757	0.3487333795000148	54.97986577181208
277317.5659179688	-0.6721014585615943	0.2832737318912701	54.97986577181208
277326.66015625	-0.6365454955751295	0.332635563101529	54.97986577181208
277335.7543945313	-0.7133550302213467	0.2791835180751641	54.97986577181208
277344.8486328125	-0.7646335082809339	0.1277722046629723	54.97986577181208
277353.9428710938	-0.7581425616911128	0.1471020085254248	54.97986577181208
277363.037109375	-0.8547855442506724	0.04234168494048458	54.97986577181208
277372.1313476563	-0.9247435241631895	-0.04607697617847573	54.97986577181208
277381.2255859375	-0.9560443110518827	-0.1064050234714586	54.97986577181208
277390.3198242188	-1.019871952518458	-0.1427930476986652	54.97986577181208
277399.4140625	-1.055067307361044	-0.2007224135482024	54.97986577181208
277408.5083007813	-1.069131024972323	-0.215856704649003	54.97986577181208
277417.6025390625	-1.095022689702832	-0.2139815016205983	54.97986577181208
277426.6967773438	-1.08442081027279	-0.2360309388361351	54.97986577181208
277435.791015625	-1.058817632057385	-0.1795525413069193	54.97986577181208
277444.8852539063	-1.047638779597137	-0.1765933927386301	54.97986577181208
277453.9794921875	-1.024487736760108	-0.1447689159231355	54.97986577181208
277463.0737304688	-0.9990288018022541	-0.1233935048244623	54.97986577181208
277472.16796875	-0.9638334469596681	-0.09061854919166562	54.97986577181208
277481.2622070313	-0.972488042412763	-0.07914127714033778	54.97986577181208
277490.3564453125	-0.9657807309366144	-0.09526813446436845	54.97986577181208
277499.4506835938	-0.9673674067696818	-0.0831236980293792	54.97986577181208
277508.544921875	-0.9748680561623641	-0.09833501483276685	54.97986577181208
277517.6391601563	-0.9743632047609335	-0.09898391336472021	54.97986577181208
277526.7333984375	-0.9849650841909748	-0.1056704778619283	54.97986577181208
277535.8276367188	-0.9867681249103696	-0.1124736672229286	54.97986577181208
277544.921875	-1.005808234907178	-0.1217326257828473	54.97986577181208
277554.0161132813	-1.023333790699696	-0.14007956217649	54.97986577181208
277563.1103515625	-1.04381633327202	-0.1557265362784947	54.97986577181208
277572.2045898438	-1.050595766376945	-0.1618716021127422	54.97986577181208
277581.298828125	-1.066462524707619	-0.1666522756396788	54.97986577181208
277590.3930664063	-1.080165634175019	-0.175342141566064	54.97986577181208
277599.4873046875	-1.060620672776779	-0.1632470729040808	54.97986577181208
277608.5815429688	-1.072520741524785	-0.1469577282474845	54.97986577181208
277617.67578125	-1.084348688644015	-0.1605639317978987	54.97986577181208
277626.7700195313	-1.087810526825253	-0.1594404499088356	54.97986577181208
277635.8642578125	-1.081031093720328	-0.1437374002151763	54.97986577181208
277644.9584960938	-1.091993581294248	-0.1437623300631749	54.97986577181208
277654.052734375	-1.108293069397577	-0.1482046370853041	54.97986577181208
277663.1469726563	-1.113918556442089	-0.1544776928888525	54.97986577181208
277672.2412109375	-1.125530138674991	-0.1478469638755493	54.97986577181208
277681.3354492188	-1.142550843066078	-0.1569932745149934	54.97986577181208
277690.4296875	-1.12228466538008	-0.1433997666134761	54.97986577181208
277699.5239257813	-1.14319993772506	-0.1270070792512598	54.97986577181208
277708.6181640625	-1.139954464430149	-0.1382289698840505	54.97986577181208
277717.7124023438	-1.13137199060583	-0.1133543975383871	54.97986577181208
277726.806640625	-1.141757505149544	-0.1060011476888731	54.97986577181208
277735.9008789063	-1.137358085794221	-0.1076467343449273	54.97986577181208
277744.9951171875	-1.156542439048581	-0.09563490573666655	54.97986577181208
277754.0893554688	-1.171832224349049	-0.1099804333789532	54.97986577181208
277763.18359375	-1.18654503661931	-0.1124551523719614	54.97986577181208
277772.2778320313	-1.17695285999213	-0.1018690818877542	54.97986577181208
277781.3720703125	-1.175149819272735	-0.08535920829330709	54.97986577181208
277790.4663085938	-1.178251049310094	-0.07638532190982364	54.97986577181208
277799.560546875	-1.174572846242529	-0.07214030408949274	54.97986577181208
277808.6547851563	-1.146878140792625	-0.041178507432441	54.97986577181208
277817.7490234375	-1.165774007531882	-0.03277832197520964	54.97986577181208
277826.8432617188	-1.151854533178155	-0.03591145560179716	54.97986577181208
277835.9375	-1.141613261891992	-0.0109022470633839	54.97986577181208
277845.0317382813	-1.14233447817975	-0.00274661512428318	54.97986577181208
277854.1259765625	-1.131732598749709	-4.5134567159235e-05	54.97986577181208
277863.2202148438	-1.126467719849076	0.01868040167277771	54.97986577181208
277872.314453125	-1.133247152954001	0.01382830604080539	54.97986577181208
277881.4086914063	-1.149546641057329	0.004048642469099783	54.97986577181208
277890.5029296875	-1.135843531589929	0.007445843017869288	54.97986577181208
277899.5971679688	-1.128342882197247	0.02437173200921604	54.97986577181208
277908.69140625	-1.110240353374523	0.03927614984857542	54.97986577181208
277917.7856445313	-1.082617769553396	0.06018278966557814	54.97986577181208
277926.8798828125	-1.080021390917467	0.07878095523371509	54.97986577181208
277935.9741210938	-1.071438917093148	0.07058798384652806	54.97986577181208
277945.068359375	-1.088099013340356	0.06953046261888483	54.97986577181208
277954.1625976563	-1.081031093720328	0.05681709396013754	54.97986577181208
277963.2568359375	-1.100936663262446	0.05187633528103317	54.97986577181208
277972.3510742188	-1.118678583941291	0.03029886662240655	54.97986577181208
277981.4453125	-1.137285964165445	0.007899651112370208	54.97986577181208
277990.5395507813	-1.150916952004069	0.003248141524040819	54.97986577181208
277999.6337890625	-1.161158223290232	-0.01367542443850777	54.97986577181208
278008.7280273438	-1.176592251848251	-0.014347964436385	54.97986577181208
278017.822265625	-1.15964366908594	-0.01435467565895602	54.97986577181208
278026.9165039063	-1.111899150836367	0.03164713637293981	54.97986577181208
278036.0107421875	-0.9848929625621991	0.1247396799435229	54.97986577181208
278045.1049804688	-0.8167774458858307	0.2714559272049087	54.97986577181208
278054.19921875	-1.059033996943712	0.2037885722004447	54.97986577181208
278063.2934570313	-1.945625179484508	-0.4770640259838384	54.97986577181208
278072.3876953125	-2.379076168427011	-1.143840991755301	54.97986577181208
278081.4819335938	-2.613255097062003	-1.226594273385189	54.97986577181208
278090.576171875	-2.365517302217162	-1.071978862538871	54.97986577181208
278099.6704101563	-1.837154249805719	-0.5298626496871454	54.97986577181208
278108.7646484375	-1.42094033014063	0.05601010546626998	54.97986577181208
278117.8588867188	-1.199815416314056	0.2701150021082985	54.97986577181208
278126.953125	-1.105913055647976	0.4317236045609004	54.97986577181208
278136.0473632813	-1.033935670129737	0.4463898626015682	54.97986577181208
278145.1416015625	-0.9712619747235746	0.5025089794039073	54.97986577181208
278154.2358398438	-0.9522218647267657	0.5157177415293353	54.97986577181208
278163.330078125	-0.9480388102577699	0.4751623170878362	54.97986577181208
278172.4243164063	-0.9416921069255003	0.4837247448690337	54.97986577181208
278181.5185546875	-0.938013903857935	0.4304433210465417	54.97986577181208
278190.6127929688	-0.9344799440479212	0.4306485586150554	54.97986577181208
278199.70703125	-0.9279168758293243	0.3892017211389581	54.97986577181208
278208.8012695313	-0.9160889287100946	0.3844056189472098	54.97986577181208
278217.8955078125	-0.8625025585296821	0.386819656742699	54.97986577181208
278226.9897460938	-0.8385581777761195	0.4004094832789933	54.97986577181208
278236.083984375	-0.8172822972872612	0.3893154935453903	54.97986577181208
278245.1782226563	-0.803218579675982	0.364043162158894	54.97986577181208
278254.2724609375	-0.77566811748363	0.3678501474084661	54.97986577181208
278263.3666992188	-0.7636238054780729	0.3395211495759158	54.97986577181208
278272.4609375	-0.7543201153659959	0.3295845509929238	54.97986577181208
278281.5551757813	-0.7437903575647304	0.2943762345789908	54.97986577181208
278290.6494140625	-0.7415545870726809	0.2791107063724601	54.97986577181208
278299.7436523438	-0.7511467636998611	0.2371647124418913	54.97986577181208
278308.837890625	-0.7685280762348267	0.1943929680497781	54.97986577181208
278317.9321289063	-0.7862699969136712	0.1537190826133471	54.97986577181208
278327.0263671875	-0.8273793253158719	0.09501795999284321	54.97986577181208
278336.1206054688	-0.8533431116751566	0.04686815625254593	54.97986577181208
278345.21484375	-0.9297199165487191	-0.02495496490353402	54.97986577181208
278354.3090820313	-0.9747959345335883	-0.0949420459532338	54.97986577181208
278363.4033203125	-1.009486437974744	-0.1373050270162357	54.97986577181208
278372.4975585938	-1.02513683141909	-0.1532175099429406	54.97986577181208
278381.591796875	-1.043239360241814	-0.1757312372078953	54.97986577181208
278390.6860351563	-1.053047901755321	-0.1808516907452211	54.97986577181208
278399.7802734375	-1.05427396944451	-0.1863755046887139	54.97986577181208
278408.8745117188	-1.067327984252928	-0.1873214429324571	54.97986577181208
278417.96875	-1.059394605087591	-0.1874084175312753	54.97986577181208
278427.0629882813	-1.060332186261676	-0.1787810842119209	54.97986577181208
278436.1572265625	-1.05751944273942	-0.1718452732553679	54.97986577181208
278445.2514648438	-1.058024294140851	-0.1736033072440072	54.97986577181208
278454.345703125	-1.049225455430204	-0.158141352559486	54.97986577181208
278463.4399414063	-1.051461225922254	-0.1585951972487977	54.97986577181208
278472.5341796875	-1.044970279332433	-0.1494925699377173	54.97986577181208
278481.6284179688	-1.039489035545473	-0.1432635258782956	54.97986577181208
278490.72265625	-1.031844142895239	-0.1326753245453529	54.97986577181208
278499.8168945313	-1.033430818728306	-0.1290736365643233	54.97986577181208
278508.9111328125	-1.034801129675046	-0.1313474999663771	54.97986577181208
278518.0053710938	-1.03508961619015	-0.1277207406368153	54.97986577181208
278527.099609375	-1.054129726186958	-0.1383549756135339	54.97986577181208
278536.1938476563	-1.056581861565335	-0.1458139307963671	54.97986577181208
278545.2880859375	-1.067544349139255	-0.1472209587278014	54.97986577181208
278554.3823242188	-1.080165634175019	-0.1537014314004825	54.97986577181208
278563.4765625	-1.09487844644528	-0.1653358450858826	54.97986577181208
278572.5708007813	-1.094589959930177	-0.1611625463994432	54.97986577181208
278581.6650390625	-1.101802122807756	-0.158595856563345	54.97986577181208
278590.7592773438	-1.105552447504097	-0.1568940941432746	54.97986577181208
278599.853515625	-1.101369393035101	-0.1493604027256429	54.97986577181208
278608.9477539063	-1.102667582353065	-0.1392543958938041	61.08873974645786
278618.0419921875	-1.097042095308554	-0.1319855067801723	61.08873974645786
278627.1362304688	-1.096897852051002	-0.1224080233154768	61.08873974645786
278636.23046875	-1.095960270876917	-0.1114895849214295	61.08873974645786
278645.3247070313	-1.10533608261777	-0.1083155128625021	61.08873974645786
278654.4189453125	-1.103388798640823	-0.1065903532819669	61.08873974645786
278663.5131835938	-1.111538542692488	-0.104927366906966	61.08873974645786
278672.607421875	-1.106201542163079	-0.09874384728309366	61.08873974645786
278681.7016601563	-1.104831231216339	-0.09094643680914981	61.08873974645786
278690.7958984375	-1.101369393035101	-0.08131062087165	61.08873974645786
278699.8901367188	-1.101946366065308	-0.0780999546659191	61.08873974645786
278708.984375	-1.08939720265832	-0.06564310705112808	61.08873974645786
278718.0786132813	-1.083194742583602	-0.05173889939609568	61.08873974645786
278727.1728515625	-1.089757810802199	-0.05153112437333984	61.08873974645786
278736.2670898438	-1.088603864741786	-0.05266231355264878	61.08873974645786
278745.361328125	-1.096681487164675	-0.05155446899184277	61.08873974645786
278754.4555664063	-1.104686987958788	-0.05724541165322728	61.08873974645786
278763.5498046875	-1.114856137616174	-0.06361487796442922	61.08873974645786
278772.6440429688	-1.110745204775954	-0.05885688274850197	61.08873974645786
278781.73828125	-1.117813124395982	-0.05642650121089405	61.08873974645786
278790.8325195313	-1.119832530001704	-0.05639280631280011	61.08873974645786
278799.9267578125	-1.116010083676587	-0.05129551721690557	61.08873974645786
278809.0209960938	-1.115649475532708	-0.04183066471949128	61.08873974645786
278818.115234375	-1.108509434283904	-0.03696805767338177	61.08873974645786
278827.2094726563	-1.095960270876917	-0.02095098940806559	61.08873974645786
278836.3037109375	-1.091128121748939	-0.009648579499073228	61.08873974645786
278845.3979492188	-1.103605163527151	-0.01578874185644182	61.08873974645786
278854.4921875	-1.101441514663877	-0.01860416601381192	61.08873974645786
278863.5864257813	-1.109735501973093	-0.01772152879364813	61.08873974645786
278872.6806640625	-1.107571853109819	-0.01823940511878394	61.08873974645786
278881.7749023438	-1.115216745760053	-0.01869967229424354	61.08873974645786
278890.869140625	-1.111610664321263	-0.01634581459947689	61.08873974645786
278899.9633789063	-1.115649475532708	-0.01478188296882602	61.08873974645786
278909.0576171875	-1.115288867388829	-0.01225708732638628	61.08873974645786
278918.1518554688	-1.117741002767206	-0.01235051863124321	61.08873974645786
278927.24609375	-1.124304070985803	-0.01234058007137747	61.08873974645786
278936.3403320313	-1.119616165115376	-0.01202085003879576	61.08873974645786
278945.4345703125	-1.123799219584372	-0.005960251334871596	61.08873974645786
278954.5288085938	-1.116731299964345	-0.003302152661205662	61.08873974645786
278963.623046875	-1.11817373253986	0.002502054228605507	61.08873974645786
278972.7172851563	-1.107355488223492	0.01055217278902	61.08873974645786
278981.8115234375	-1.107860339624922	0.01536951158885278	61.08873974645786
278990.9057617188	-1.101657879550204	0.02124098812977603	61.08873974645786
279000	-1.099638473944482	0.02313653497861943	61.08873974645786
279009.0942382813	-1.116514935078017	0.01867770473562916	61.08873974645786
279018.1884765625	-1.117741002767206	0.004730210181707879	61.08873974645786
279027.2827148438	-1.117741002767206	0.01285984680291069	61.08873974645786
279036.376953125	-1.117741002767206	0.01757955499865416	61.08873974645786
279045.4711914063	-1.117741002767206	0.02161798245559558	61.08873974645786
279054.5654296875	-1.119616165115376	0.02378595899833466	61.08873974645786
279063.6596679688	-1.130145922916642	0.0135308648747542	61.08873974645786
279072.75390625	-1.130145922916642	0.01426938215469301	61.08873974645786
279081.8481445313	-1.127765909167041	0.0152885983248404	61.08873974645786
279090.9423828125	-1.127765909167041	0.02148264908136835	61.08873974645786
279100.0366210938	-1.127765909167041	0.01936874361593661	61.08873974645786
279109.130859375	-1.127765909167041	0.02249289260673566	61.08873974645786
279118.2250976563	-0.8599783015225294	0.1658335936237239	61.08873974645786
279127.3193359375	-0.8162004728556244	0.3443666066748025	61.08873974645786
279136.4135742188	-0.8162004728556244	0.2813303653048352	61.08873974645786
279145.5078125	-2.123981967447039	-0.4453805973662219	61.08873974645786
279154.6020507813	-2.433455876523957	-1.357984820933817	61.08873974645786
279163.6962890625	-2.433455876523957	-1.150052561978761	61.08873974645786
279172.7905273438	-2.433455876523957	-0.9589544528207109	61.08873974645786
279181.884765625	-1.484623728349653	-0.5272289723050974	61.08873974645786
279190.9790039063	-1.484623728349653	0.2957921015324978	61.08873974645786
279200.0732421875	-1.484623728349653	-0.08564478530750361	61.08873974645786
279209.1674804688	-0.9777529213133958	0.3119378329175685	61.08873974645786
279218.26171875	-0.9455866748793931	0.6994824941152394	61.08873974645786
279227.3559570313	-0.9216422941258305	0.4142682105318163	61.08873974645786
279236.4501953125	-0.9216422941258305	0.5894653248292638	61.08873974645786
279245.5444335938	-0.8845717769350741	0.4499017192411574	61.08873974645786
279254.638671875	-0.8581031391743588	0.5260713528387728	61.08873974645786
279263.7329101563	-0.8436788134192007	0.486360180023135	61.08873974645786
279272.8271484375	-0.8270187171719929	0.4535937064769987	61.08873974645786
279281.9213867188	-0.8141089456211265	0.4749375190941723	61.08873974645786
279291.015625	-0.7955736870257482	0.4041465842525401	61.08873974645786
279300.1098632813	-0.7796348070662984	0.4461144307625489	61.08873974645786
279309.2041015625	-0.766003819227674	0.3730371014290075	61.08873974645786
279318.2983398438	-0.7626862243039876	0.3921964609583111	61.08873974645786
279327.392578125	-0.755978912827839	0.3309860472152252	61.08873974645786
279336.4868164063	-0.7405448842698198	0.3310223105400019	61.08873974645786
279345.5810546875	-0.7446558171100399	0.3008176176418084	61.08873974645786
279354.6752929688	-0.7378042623763398	0.2620256195702978	61.08873974645786
279363.76953125	-0.7411218573000261	0.2528307396769086	61.08873974645786
279372.8637695313	-0.7463867362006589	0.1990156138895052	61.08873974645786
279381.9580078125	-0.7741535632793384	0.1765227225625313	61.08873974645786
279391.0522460938	-0.8025694850169999	0.1034996095257266	61.08873974645786
279400.146484375	-0.8316345014136436	0.07244521856726897	61.08873974645786
279409.2407226563	-0.869426234892158	0.01322939509163386	61.08873974645786
279418.3349609375	-0.9344078224191454	-0.04725993235767861	61.08873974645786
279427.4291992188	-0.972488042412763	-0.1079720651560707	61.08873974645786
279436.5234375	-0.9970093961965318	-0.1369441364241374	61.08873974645786
279445.6176757813	-1.018790128086821	-0.1515552509555873	61.08873974645786
279454.7119140625	-1.020088317404785	-0.1705333398676935	61.08873974645786
279463.8061523438	-1.024271371873781	-0.1556647157451249	61.08873974645786
279472.900390625	-1.018718006458045	-0.164207661387905	61.08873974645786
279481.9946289063	-1.015400411534358	-0.1479016749999924	61.08873974645786
279491.0888671875	-0.9972257610828592	-0.1397894806935693	61.08873974645786
279500.1831054688	-0.9962881799087739	-0.126667384388499	61.08873974645786
279509.27734375	-0.9818638541536158	-0.1199597929223616	61.08873974645786
279518.3715820313	-0.9675837716560092	-0.09759416144797871	61.08873974645786
279527.4658203125	-0.9636892037021165	-0.07353267883978565	61.08873974645786
279536.5600585938	-0.9448654585916352	-0.07857111925740634	61.08873974645786
279545.654296875	-0.9347684305630244	-0.0560699303290091	61.08873974645786
279554.7485351563	-0.9328211465860781	-0.06128489609478877	61.08873974645786
279563.8427734375	-0.9303690112077012	-0.06359954098620116	61.08873974645786
279572.9370117188	-0.9167380233690767	-0.05565448482965175	61.08873974645786
279582.03125	-0.9227241185574674	-0.05905836020714631	61.08873974645786
279591.1254882813	-0.9430624178722403	-0.07647230756506057	61.08873974645786
279600.2197265625	-0.9608043385510849	-0.1031382832359176	61.08873974645786
279609.3139648438	-1.005663991649627	-0.1289826937555282	61.08873974645786
279618.408203125	-1.098340284626518	-0.2046686632664902	61.08873974645786
279627.5024414063	-1.123078003296614	-0.2545336793350037	61.08873974645786
279636.5966796875	-1.137213842536669	-0.2432319303126659	55.91172790353771
279645.6909179688	-1.148609059883244	-0.2443413501231976	55.91172790353771
279654.78515625	-1.14319993772506	-0.2344214848950379	55.91172790353771
279663.8793945313	-1.140026586058925	-0.2091134681085753	55.91172790353771
279672.9736328125	-1.130650774318072	-0.1958261728951291	55.91172790353771
279682.0678710938	-1.118750705570067	-0.169601270036401	55.91172790353771
279691.162109375	-1.085646877961979	-0.1368087480608708	55.91172790353771
279700.2563476563	-1.086945067279943	-0.1125679123706208	55.91172790353771
279709.3505859375	-1.080454120690122	-0.1084386260420574	55.91172790353771
279718.4448242188	-1.077208647395211	-0.09776995075567592	55.91172790353771
279727.5390625	-1.079083809743382	-0.08707512080717272	55.91172790353771
279736.6333007813	-1.071438917093148	-0.08576692106851395	55.91172790353771
279745.7275390625	-1.077929863682969	-0.07216386640875608	55.91172790353771
279754.8217773438	-1.040787224863437	-0.05818765034979161	55.91172790353771
279763.916015625	-1.018141033427839	-0.01530686701988556	55.91172790353771
279773.0102539063	-0.9890760170311949	0.00620729250564759	55.91172790353771
279782.1044921875	-0.9830899218428042	0.017680133123114	55.91172790353771
279791.1987304688	-0.980060813434221	0.02256836620797232	55.91172790353771
279800.29296875	-0.9925378552124329	0.005830057781406215	55.91172790353771
279809.3872070313	-1.01691496573865	-0.00769570629379166	55.91172790353771
279818.4814453125	-1.05975521323147	-0.05082351371522782	55.91172790353771
279827.5756835938	-1.058673388799833	-0.06246020721780969	55.91172790353771
279836.669921875	-1.053336388270425	-0.04842443702792139	55.91172790353771
279845.7641601563	-1.055427915504922	-0.04439619237423604	55.91172790353771
279854.8583984375	-1.057952172512075	-0.0455652358038411	55.91172790353771
279863.9526367188	-1.064587362359448	-0.04588146962350243	55.91172790353771
279873.046875	-1.051316982664702	-0.03804010351799243	55.91172790353771
279882.1411132813	-1.045258765847536	-0.02367426616263026	55.91172790353771
279891.2353515625	-1.064298875844345	-0.02858547675557551	55.91172790353771
279900.3295898438	-1.066534646336394	-0.04361322346161986	55.91172790353771
279909.423828125	-1.062856443268829	-0.0292919401178548	55.91172790353771
279918.5180664063	-1.075405606675816	-0.03444740570074592	55.91172790353771
279927.6123046875	-1.092065702923024	-0.04749784192453116	55.91172790353771
279936.7065429688	-1.102162730951635	-0.05393349554555017	55.91172790353771
279945.80078125	-1.123510733069269	-0.06398921423335793	55.91172790353771
279954.8950195313	-1.147959965224262	-0.08015726197110523	55.91172790353771
279963.9892578125	-1.165341277759228	-0.09347274498511632	55.91172790353771
279973.0834960938	-1.16599037241821	-0.08715981487467429	55.91172790353771
279982.177734375	-1.172192832492928	-0.08073140307685109	55.91172790353771
279991.2719726563	-1.176664373477027	-0.07596192202090357	55.91172790353771
280000.3662109375	-1.180847427946023	-0.07146272383206898	55.91172790353771
280009.4604492188	-1.185607455445225	-0.06455715014354424	55.91172790353771
280018.5546875	-1.182145617263987	-0.05672425946690577	55.91172790353771
280027.6489257813	-1.185823820331552	-0.04570292323157069	55.91172790353771
280036.7431640625	-1.186833523134413	-0.04106718329862519	55.91172790353771
280045.8374023438	-1.198012375594661	-0.03900965428159359	55.91172790353771
280054.931640625	-1.190872334345858	-0.03164886188912471	55.91172790353771
280064.0258789063	-1.194406294155871	-0.0206140524441762	55.91172790353771
280073.1201171875	-1.1970026727918	-0.01602263957086589	55.91172790353771
280082.2143554688	-1.217196728849021	-0.02316961210808335	55.91172790353771
280091.30859375	-1.233712581838677	-0.03193837992369181	55.91172790353771
280100.4028320313	-1.241068987973808	-0.03560190568247311	55.91172790353771
280109.4970703125	-1.232847122293368	-0.01729711387549369	55.91172790353771
280118.5913085938	-1.240492014943602	-0.006158453983147655	55.91172790353771
280127.685546875	-1.242511420549324	-0.00640338194826741	55.91172790353771
280136.7797851563	-1.23212590600561	0.008275523435289723	55.91172790353771
280145.8740234375	-1.239121703996862	0.01891198906320399	55.91172790353771
280154.9682617188	-1.237679271421346	0.01811601038472639	55.91172790353771
280164.0625	-1.230827716687646	0.03192084295476159	55.91172790353771
280173.1567382813	-1.191232942489737	0.06327307731604015	55.91172790353771
280182.2509765625	-1.086800824022391	0.1422890272251243	55.91172790353771
280191.3452148438	-0.8963997240543037	0.2989003187000511	55.91172790353771
280200.439453125	-0.9770317050256379	0.330209445205077	55.91172790353771
280209.5336914063	-1.724716630544261	-0.1779692917946826	55.91172790353771
280218.6279296875	-2.367103978050229	-0.9381642245514984	55.91172790353771
280227.7221679688	-2.580223391082691	-1.174452520833928	55.91172790353771
280236.81640625	-2.486104665530284	-1.02756091424564	55.91172790353771
280245.9106445313	-1.974473830994824	-0.6028525484579914	55.91172790353771
280255.0048828125	-1.521189394138979	0.01853925680782705	55.91172790353771
280264.0991210938	-1.281312856830699	0.3077690920601556	55.91172790353771
280273.193359375	-1.173563143439668	0.4305046663707127	55.91172790353771
280282.2875976563	-1.117380394623327	0.4915184289453138	55.91172790353771
280291.3818359375	-1.065885551677412	0.4986459230676579	55.91172790353771
280300.4760742188	-1.044465427931002	0.5289347025388558	55.91172790353771
280309.5703125	-1.025713804449297	0.4989055114259109	55.91172790353771
280318.6645507813	-1.009270073088416	0.5021838992484533	55.91172790353771
280327.7587890625	-0.9820080974111674	0.4902413486472975	55.91172790353771
280336.8530273438	-0.9639776902172197	0.4852598110490687	55.91172790353771
280345.947265625	-0.9640498118459955	0.4655225997435009	55.91172790353771
280355.0415039063	-0.9302968895789254	0.4440014332693207	55.91172790353771
280364.1357421875	-0.9199113750352115	0.4514682032507469	55.91172790353771
280373.2299804688	-0.8948130482212363	0.4234523859853112	55.91172790353771
280382.32421875	-0.8791626547768897	0.4219264765365339	55.91172790353771
280391.4184570313	-0.8565164633412914	0.4050763259365486	55.91172790353771
280400.5126953125	-0.8352405828524331	0.3939956544738041	55.91172790353771
280409.6069335938	-0.8120174183866284	0.3874763810140193	55.91172790353771
280418.701171875	-0.7864863617999985	0.3720902674765289	55.91172790353771
280427.7954101563	-0.7623256161601086	0.369179137516247	55.91172790353771
280436.8896484375	-0.7411218573000261	0.3503011117893189	55.91172790353771
280445.9838867188	-0.7306642211275365	0.3339692435718966	55.91172790353771
280455.078125	-0.7343424241951018	0.297590952522605	55.91172790353771
280464.1723632813	-0.7583589265774402	0.2487199595025061	55.91172790353771
280473.2666015625	-0.7852602941108101	0.1914116510126006	55.91172790353771
280482.3608398438	-0.8320672311862983	0.1270411021026626	55.91172790353771
280491.455078125	-0.9158725638237673	0.03885669393490498	55.91172790353771
280500.5493164063	-0.964554663247426	-0.04814713374839268	55.91172790353771
280509.6435546875	-1.010424019148829	-0.0784493462124331	55.91172790353771
280518.7377929688	-1.05564428039125	-0.1185785549474253	55.91172790353771
280527.83203125	-1.102090609322859	-0.1706921095368377	55.91172790353771
280536.9262695313	-1.13908900488484	-0.2051132205534186	55.91172790353771
280546.0205078125	-1.190439604573203	-0.2430344264058907	55.91172790353771
280555.1147460938	-1.239554433769516	-0.2848980444404012	55.91172790353771
280564.208984375	-1.252247840434056	-0.2996024180441733	55.91172790353771
280573.3032226563	-1.248858123881593	-0.280382449822507	55.91172790353771
280582.3974609375	-1.251959353918952	-0.2674203907513726	55.91172790353771
280591.4916992188	-1.261695773803684	-0.2622063889764358	55.91172790353771
280600.5859375	-1.299054777509544	-0.2731893732340406	55.91172790353771
280609.6801757813	-1.208181525252047	-0.2315194758364758	55.91172790353771
280618.7744140625	-1.18466987427114	-0.1406997307645172	55.91172790353771
280627.8686523438	-1.238256244451552	-0.17341565091571	55.91172790353771
280636.962890625	-1.238688974224207	-0.2056637652067032	55.91172790353771
280646.0571289063	-1.250372678085885	-0.173725895275992	55.91172790353771
280655.1513671875	-1.255709678615294	-0.1904655700219465	55.91172790353771
280664.2456054688	-1.274677666983326	-0.1830013222054283	55.91172790353771
280673.33984375	-1.284053478724179	-0.1885065933633987	55.91172790353771
280682.4340820313	-1.296602642131167	-0.1894052074462905	55.91172790353771
280691.5283203125	-1.314560927696339	-0.1853839366142655	55.91172790353771
280700.6225585938	-1.331581632087425	-0.1996454322264731	55.91172790353771
280709.716796875	-1.338000457048471	-0.1865082120112065	55.91172790353771
280718.8110351563	-1.35206417465975	-0.1882932040536346	55.91172790353771
280727.9052734375	-1.365695162498374	-0.1842809139277569	55.91172790353771
280736.9995117188	-1.364252729922859	-0.1766204865596527	55.91172790353771
280746.09375	-1.373123690262281	-0.1623445864441095	55.91172790353771
280755.1879882813	-1.362449689203464	-0.1484037550033731	55.91172790353771
280764.2822265625	-1.384230421093753	-0.1402255474763258	55.91172790353771
280773.3764648438	-1.386538313214578	-0.1404779609149263	55.91172790353771
280782.470703125	-1.410122085824262	-0.1407499660496127	55.91172790353771
280791.5649414063	-1.404712963666077	-0.1312982099103393	55.91172790353771
280800.6591796875	-1.386826799729681	-0.1073003808119288	55.91172790353771
280809.7534179688	-1.43276827725986	-0.1019768744832904	55.91172790353771
280818.84765625	-1.411276031884674	-0.1191659958389115	55.91172790353771
280827.9418945313	-1.415098478209791	-0.07504762379150179	55.91172790353771
280837.0361328125	-1.412285734687535	-0.0732929352747688	55.91172790353771
280846.1303710938	-1.403198409461786	-0.06035560402249865	55.91172790353771
280855.224609375	-1.399303841507893	-0.02986542602808109	55.91172790353771
280864.3188476563	-1.404857206923629	-0.03982810505527311	55.91172790353771
280873.4130859375	-1.396202611470534	-0.01560048254372935	55.91172790353771
280882.5073242188	-1.394399570751139	-0.01089162812048242	55.91172790353771
280891.6015625	-1.385889218555596	0.006073521210148897	55.91172790353771
280900.6958007813	-1.387764380903766	0.01330707037071977	55.91172790353771
280909.7900390625	-1.372979447004729	0.02356710828084019	55.91172790353771
280918.8842773438	-1.368291541134303	0.04283475602702642	55.91172790353771
280927.978515625	-1.373700663292487	0.03878408378021074	55.91172790353771
280937.0727539063	-1.371969744201868	0.04271508701805783	55.91172790353771
280946.1669921875	-1.377667352875156	0.04238984620755074	55.91172790353771
280955.2612304688	-1.377018258216174	0.04391915402044473	55.91172790353771
280964.35546875	-1.377523109617604	0.04563471121300883	55.91172790353771
280973.4497070313	-1.369950338596146	0.05407734402510448	55.91172790353771
280982.5439453125	-1.395265030296449	0.04473418762295535	55.91172790353771
280991.6381835938	-1.344924133410947	0.05812330020932462	55.91172790353771
281000.732421875	-1.338216821934798	0.09972152105056623	55.91172790353771
281009.8266601563	-1.364685459695513	0.07533924677093226	55.91172790353771
281018.9208984375	-1.36389212177898	0.05501215256110059	55.91172790353771
281028.0151367188	-1.340091984282969	0.08398650080288253	55.91172790353771
281037.109375	-1.349395674395046	0.08261103245258972	55.91172790353771
281046.2036132813	-1.357617540075486	0.06915511838133209	55.91172790353771
281055.2978515625	-1.366704865301236	0.0606506261848527	55.91172790353771
281064.3920898438	-1.380552218026187	0.04896687314934696	55.91172790353771
281073.486328125	-1.384951637381511	0.04028956939016387	55.91172790353771
281082.5805664063	-1.385528610411717	0.0404628557627292	55.91172790353771
281091.6748046875	-1.376946136587398	0.04744786028118261	55.91172790353771
281100.7690429688	-1.384879515752735	0.04623029826085614	55.91172790353771
281109.86328125	-1.373772784921263	0.04797564134547459	55.91172790353771
281118.9575195313	-1.370455189997577	0.05610395165871384	55.91172790353771
281128.0517578125	-1.374061271436366	0.05515511314756067	55.91172790353771
281137.1459960938	-1.365334554354496	0.05268918801619696	55.91172790353771
281146.240234375	-1.362666054089791	0.06313804246011134	55.91172790353771
281155.3344726563	-1.161302466547783	0.1648108826389664	55.91172790353771
281164.4287109375	-0.961453433210067	0.3918266647356562	55.91172790353771
281173.5229492188	-1.219865229113725	0.3072274781017918	55.91172790353771
281182.6171875	-2.104364884420024	-0.4002287912038215	55.91172790353771
281191.7114257813	-2.488556800908661	-1.031984546063429	55.91172790353771
281200.8056640625	-2.553610510064424	-1.015583629044896	55.91172790353771
281209.8999023438	-2.761104436052375	-1.022635423101963	55.91172790353771
281218.994140625	-2.618303611076309	-1.020094235353321	55.91172790353771
281228.0883789063	-1.556528992239117	-0.1736262245206399	55.91172790353771
281237.1826171875	-1.333961645837027	0.562471708427093	55.91172790353771
281246.2768554688	-1.247343569677302	0.4623849516539125	55.91172790353771
281255.37109375	-1.201185727260796	0.5131131245631764	55.91172790353771
281264.4653320313	-1.185607455445225	0.563792102375112	55.91172790353771
281273.5595703125	-1.154378790185307	0.4654191991818624	55.91172790353771
281282.6538085938	-1.127765909167041	0.5486487627490337	55.91172790353771
281291.748046875	-1.086007486105858	0.4852625203146992	55.91172790353771
281300.8422851563	-1.067760714025583	0.5139273149715016	55.91172790353771
281309.9365234375	-1.043095116984262	0.4883360950539104	55.91172790353771
281319.0307617188	-1.029536250774414	0.4538673586246066	55.91172790353771
281328.125	-1.014102222216394	0.4630216893704194	55.91172790353771
281337.2192382813	-0.9913839091520202	0.4034999385719068	55.91172790353771
281346.3134765625	-0.9610928250661881	0.4373050689359339	55.91172790353771
281355.4077148438	-0.9339750926464907	0.3904270273431807	55.91172790353771
281364.501953125	-0.8943081968198058	0.4113437571233514	55.91172790353771
281373.5961914063	-0.86596439671092	0.3907647555234778	55.91172790353771
281382.6904296875	-0.8503140032665734	0.3714311297302311	55.91172790353771
281391.7846679688	-0.8158398647117454	0.359885686004115	55.91172790353771
281400.87890625	-0.792183970473286	0.3376612540803656	55.91172790353771
281409.9731445313	-0.7671577652880867	0.3342598502046087	55.91172790353771
281419.0673828125	-0.7419151952165598	0.2966274930918754	55.91172790353771
281428.1616210938	-0.7448721819963673	0.2857003258679324	55.91172790353771
281437.255859375	-0.765643211083795	0.2077566869414317	55.91172790353771
281446.3500976563	-0.7936264030488018	0.1595452773709286	55.91172790353771
281455.4443359375	-0.821176865241154	0.0909435217356013	55.91172790353771
281464.5385742188	-0.8692098700058306	0.02636104431127659	55.91172790353771
281473.6328125	-0.9165937801115252	-0.04471785244291261	55.91172790353771
281482.7270507813	-0.9777529213133958	-0.1231294866939086	55.91172790353771
281491.8212890625	-1.093724500384867	-0.2168377845433166	55.91172790353771
281500.9155273438	-1.155893344389599	-0.327130984309979	55.91172790353771
281510.009765625	-1.190006874800548	-0.3431489474259829	55.91172790353771
281519.1040039063	-1.222605851007206	-0.3752985766815903	55.91172790353771
281528.1982421875	-1.243376880094633	-0.3905220224990593	55.91172790353771
281537.2924804688	-1.247487812934853	-0.3859883272128377	55.91172790353771
281546.38671875	-1.258666665395101	-0.384224122334731	55.91172790353771
281555.4809570313	-1.259171516796531	-0.3745345218313186	55.91172790353771
281564.5751953125	-1.252824813464262	-0.3621437807944814	55.91172790353771
281573.6694335938	-1.236308960474606	-0.3325285039529284	55.91172790353771
281582.763671875	-1.237679271421346	-0.3197548123450667	55.91172790353771
281591.8579101563	-1.219720985856174	-0.3004801944985527	55.91172790353771
281600.9521484375	-1.218278553280658	-0.2815535305916829	55.91172790353771
281610.0463867188	-1.223327067294963	-0.2772062283503596	55.91172790353771
281619.140625	-1.221379783318017	-0.2728303875541022	55.91172790353771
281628.2348632813	-1.217701580250452	-0.2571672773513676	55.91172790353771
281637.3291015625	-1.222389486120878	-0.2519066132223146	55.91172790353771
281646.4233398438	-1.238761095852983	-0.2559350510654338	55.91172790353771
281655.517578125	-1.235082892785417	-0.2524914512074361	55.91172790353771
281664.6118164063	-1.252824813464262	-0.2481994856359478	55.91172790353771
281673.7060546875	-1.261118800773478	-0.2532109287314134	55.91172790353771
281682.8002929688	-1.264147909182061	-0.2479779451988046	55.91172790353771
281691.89453125	-1.273307356036586	-0.2377465938023289	55.91172790353771
281700.9887695313	-1.284414086868058	-0.2433506325057598	55.91172790353771
281710.0830078125	-1.275398883271084	-0.2266251376853391	55.91172790353771
281719.1772460938	-1.275615248157412	-0.2042515801685085	59.43769272628333
281728.271484375	-1.276047977930066	-0.1892419076643023	59.43769272628333
281737.3657226563	-1.268403085279833	-0.1773633118362712	59.43769272628333
281746.4599609375	-1.271792801832295	-0.1647456455962189	59.43769272628333
281755.5541992188	-1.264220030810837	-0.1539470496457047	59.43769272628333
281764.6484375	-1.277201923990479	-0.1488469243684197	59.43769272628333
