Time Stamp	ECG LL-RA	ECG LL-RA Filtered	Heart Rate
9.09423828125	-16.63232942012899	-0.1391153779928547	-1
18.1884765625	-16.62886758194776	-0.1375093670449827	-1
27.28271484375	-16.63232942012899	-0.1377821762209457	-1
36.376953125	-16.45159261841686	-0.04502232012753767	-1
45.47119140625	-16.32256702453697	0.1293537656340237	-1
54.5654296875	-16.23681440792256	0.1883839311387457	-1
63.65966796875	-16.19541659300525	0.2055966939678476	-1
72.75390625	-16.17940559141703	0.2094877325895808	-1
81.84814453125	-16.18474259194644	0.1613294495672544	-1
90.9423828125	-16.20565786429141	0.1297474219445114	-1
100.03662109375	-16.22707798803782	0.06900804313264106	-1
109.130859375	-16.2342901509154	0.03794851081650384	-1
118.22509765625	-16.24402657080013	0.009886942205412152	-1
127.3193359375	-16.24914720644322	-0.02239316147515668	-1
136.41357421875	-16.23551621860459	-0.02859193362533612	-1
145.5078125	-16.22895315038599	-0.04064324889694804	-1
154.60205078125	-16.21842339258473	-0.04597747320229755	-1
163.6962890625	-16.20810999966979	-0.058169029637856	-1
172.79052734375	-16.19938328258792	-0.06104827988821391	-1
181.884765625	-16.19520022811892	-0.07648372856199512	-1
190.97900390625	-16.18950261944564	-0.08604394725324799	-1
200.0732421875	-16.18164136190908	-0.09489694242856045	-1
209.16748046875	-16.18560805149174	-0.1093548435214865	-1
218.26171875	-16.18726684895359	-0.1260552245372772	-1
227.35595703125	-16.18351652425725	-0.1394223434179021	-1
236.4501953125	-16.18517532171909	-0.145558775677171	-1
245.54443359375	-16.19152202505136	-0.1662823256917668	-1
254.638671875	-16.2018354179663	-0.1808402053940518	-1
263.73291015625	-16.20111420167854	-0.1958250429815002	-1
272.8271484375	-16.20551362103386	-0.2009993241549333	-1
281.92138671875	-16.20731666175326	-0.2113365357553772	-1
291.015625	-16.20962455387408	-0.2188321263458191	-1
300.10986328125	-16.21510579766104	-0.2242076968230669	-1
309.2041015625	-16.2113554729647	-0.2315978415851872	-1
318.29833984375	-16.21525004091859	-0.2288277752664201	-1
327.392578125	-16.23501136720316	-0.2476381236194998	-1
336.48681640625	-16.23032346133273	-0.2546826205207506	-1
345.5810546875	-16.14168597956729	-0.1987231570307778	-1
354.67529296875	-16.1383683846436	-0.1472686867213342	-1
363.76953125	-16.14853753430099	-0.1791856165872329	-1
372.86376953125	-16.17515041531926	-0.2018692110950439	-1
381.9580078125	-16.20767726989714	-0.2270409068378067	-1
391.05224609375	-16.2271501096666	-0.2619645715961231	-1
400.146484375	-16.22260644705373	-0.249438082083174	-1
409.24072265625	-16.22455373103067	-0.2495455763879178	-1
418.3349609375	-16.22729435292415	-0.2443116544063732	-1
427.42919921875	-16.22671737989395	-0.2421129085737978	-1
436.5234375	-16.22678950152272	-0.2357212333595803	-1
445.61767578125	-16.22195735239474	-0.225989008073301	-1
454.7119140625	-16.21503367603227	-0.216994995100299	-1
463.80615234375	-16.21467306788839	-0.2038556149234573	-1
472.900390625	-16.24438717894401	-0.220392352355523	-1
481.99462890625	-16.22642889337884	-0.2176640575833732	-1
491.0888671875	-15.66669293244993	0.1032319504760121	-1
500.18310546875	-14.64472945269698	0.9746296381700821	-1
509.27734375	-13.94024538281505	1.754770755448035	-1
518.37158203125	-14.70300372874781	1.391019648789996	-1
527.4658203125	-15.98539841001015	-0.007826221093007041	-1
536.56005859375	-16.04987514613571	-0.640126987359148	-1
545.654296875	-16.087739001243	-0.3678222905264401	-1
554.74853515625	-16.12560285635029	-0.5083244899609594	-1
563.8427734375	-16.13735868184074	-0.5046069039999799	-1
572.93701171875	-16.14370538517301	-0.4355544437693066	-1
582.03125	-16.14132537142341	-0.493582260249645	-1
591.12548828125	-16.13079561362214	-0.3895625856909118	-1
600.2197265625	-16.1362768574091	-0.428728294197732	-1
609.31396484375	-16.119905247677	-0.3668250186618441	-1
618.408203125	-16.08918143381851	-0.3384247173767077	-1
627.50244140625	-16.07764197321439	-0.3017864388205339	-1
636.5966796875	-16.06228006628514	-0.4964812491938888	-1
645.69091796875	-16.04749513238611	-0.7548846593867602	-1
654.78515625	-16.02629137352602	-0.5745545457111851	-1
663.87939453125	-16.00862157447595	-0.5697308708203133	-1
672.9736328125	-15.99434149197835	-0.5522481249743356	-1
682.06787109375	-15.94241391925978	-0.4551552608503942	-1
691.162109375	-15.92488836346726	-0.4460559050228836	-1
700.25634765625	-15.90476642903882	-0.379706702476	-1
709.3505859375	-15.87512443961197	-0.3693021931902176	-1
718.44482421875	-15.85997889756905	-0.3136197806784212	-1
727.5390625	-15.84988186954044	-0.3029181891959936	-1
736.63330078125	-15.84504972041246	-0.2857368521463511	-1
745.7275390625	-15.83675573310324	-0.2589494217145398	-1
754.82177734375	-15.82723567810484	-0.253164657825406	-1
763.916015625	-15.83682785473202	-0.225624931128734	-1
773.01025390625	-15.86538801972723	-0.2538443784306829	-1
782.1044921875	-15.90974282142435	-0.2643257049115564	-1
791.19873046875	-15.96087705622638	-0.3040730778056162	-1
800.29296875	-16.01374221011903	-0.3286441836658409	-1
809.38720703125	-16.0653812963225	-0.3521758932366739	-1
818.4814453125	-16.14961935873263	-0.3931936981870217	-1
827.57568359375	-16.17551102346313	-0.4072897136333122	-1
836.669921875	-16.17753042906886	-0.3755876907532145	-1
845.76416015625	-16.18063165910622	-0.3283478659410745	-1
854.8583984375	-16.18741109221114	-0.3093726715617712	-1
863.95263671875	-16.18733897058236	-0.263688386127329	-1
873.046875	-16.18748321383992	-0.2348170907527822	-1
882.14111328125	-16.18200197005296	-0.1916119805456629	-1
891.2353515625	-16.18084802399254	-0.1550989972888413	-1
900.32958984375	-16.1836607675148	-0.1253420464667303	-1
909.423828125	-16.18012680770478	-0.08952846547804846	-1
918.51806640625	-16.18495895683276	-0.06234529827906742	-1
927.6123046875	-16.18214621331051	-0.0291816176331396	-1
936.70654296875	-16.18416561891623	-0.002831676869324128	-1
945.80078125	-16.18878140315788	0.02659173564183377	-1
954.89501953125	-16.2107784999345	0.03595337004846977	-1
963.9892578125	-16.21856763584228	0.05148757747223226	-1
973.08349609375	-16.21250941902511	0.08152044962910338	-1
982.177734375	-16.21099486482082	0.1157095366207926	-1
991.27197265625	-16.21323063531287	0.1389799408165248	-1
1000.3662109375	-16.22065916307678	0.1586234954304872	-1
1009.46044921875	-16.22592404197741	0.1784848529180269	-1
1018.5546875	-16.22765496106803	0.1976346660281467	-1
1027.64892578125	-16.23775198909664	0.2189614031201923	-1
1036.7431640625	-16.25700846397978	0.2223988825409032	-1
1045.83740234375	-16.24806538201158	0.2437726993509557	-1
1054.931640625	-16.20371058031447	0.2984891500887407	-1
1064.02587890625	-16.16801037407045	0.3615411343854186	-1
1073.1201171875	-16.15618242695122	0.3931869425769087	-1
1082.21435546875	-16.16981341478985	0.3990862256408028	-1
1091.30859375	-16.22614040686374	0.3732317213699711	-1
1100.40283203125	-16.23616531326357	0.3491510715851634	-1
1109.4970703125	-16.24301686799727	0.3716786964631953	-1
1118.59130859375	-16.25058963901873	0.3771761724850545	-1
1127.685546875	-16.24994054435975	0.387424259845636	-1
1136.77978515625	-16.2503732741324	0.4084582042685833	-1
1145.8740234375	-16.25794604515386	0.412206936959476	-1
1154.96826171875	-16.24013200284624	0.434323333977626	-1
1164.0625	-16.23703077280888	0.4583102408573643	-1
1173.15673828125	-16.24301686799727	0.4631718545536659	-1
1182.2509765625	-16.29617050840503	0.4396294617147282	-1
1191.34521484375	-16.37197034024839	0.3807334411347004	-1
1200.439453125	-16.20046510701956	0.4521998771534993	-1
1209.53369140625	-15.58274335655491	0.9166092937347328	-1
1218.6279296875	-14.55176467320498	1.773850472896961	-1
1227.72216796875	-14.99538481180487	1.928931035046467	-1
1236.81640625	-16.08939779870484	0.7291455799296739	-1
1245.91064453125	-16.05629397109675	0.1973223788725267	-1
1255.0048828125	-16.06408310700454	0.5415453997150055	-1
1264.09912109375	-16.12971378919051	0.3324793312613509	-1
1273.193359375	-16.16180791399573	0.3270310920955653	-1
1282.28759765625	-16.1836607675148	0.3442660266633966	-1
1291.3818359375	-16.19520022811892	0.2743211597742202	-1
1300.47607421875	-16.18741109221114	0.3547107352521546	-1
1309.5703125	-16.16512550891942	0.3150992473835115	-1
1318.66455078125	-16.15906729210225	0.386023652384854	-1
1327.7587890625	-16.14327265540036	0.362708907875263	-1
1336.85302734375	-16.1288483296452	0.3974032326354569	-1
1345.947265625	-16.1196167611619	0.4094893288300524	-1
1355.04150390625	-16.10526455703552	0.4032111807593072	-1
1364.1357421875	-16.07244921594253	0.4501484196887391	-1
1373.22998046875	-16.0540582006047	0.4438201196251512	-1
1382.32421875	-16.03314292825972	0.4789723691324975	-1
1391.41845703125	-16.01525676432333	0.4655607592392286	-1
1400.5126953125	-15.99960637087898	0.4889412779206432	-1
1409.60693359375	-15.98410022069219	0.4787602570641747	-1
1418.701171875	-15.95986735342352	0.490525635805042	-1
1427.79541015625	-15.92899929630748	0.5052064868114143	-1
1436.8896484375	-15.90693007790209	0.5068695126604508	-1
1445.98388671875	-15.89243363051816	0.5132484774064254	-1
1455.078125	-15.89344333332102	0.4853201371915674	-1
1464.17236328125	-15.88817845442038	0.4778119501877092	-1
1473.2666015625	-15.89048634654121	0.4492593071380509	-1
1482.36083984375	-15.905992496728	0.4281327730324298	-1
1491.455078125	-15.93123506679953	0.3803531668105513	-1
1500.54931640625	-16.02347863000377	0.3073108219825806	-1
1509.6435546875	-16.0722328510562	0.2175451913686601	-1
1518.73779296875	-16.12617982938049	0.173374938465616	-1
1527.83203125	-16.17067887433516	0.1286287687132477	-1
1536.92626953125	-16.20363845868569	0.0847294913888148	-1
1546.0205078125	-16.22635677175007	0.07986826334006704	-1
1555.11474609375	-16.23479500231683	0.0590329850255267	-1
1564.208984375	-16.25152722019282	0.0668441180996464	-1
1573.30322265625	-16.25556603140426	0.0546943459334974	-1
1582.3974609375	-16.25232055810935	0.06749163607978193	-1
1591.49169921875	-16.24070897587645	0.08372675778705747	-1
1600.5859375	-16.23306408322621	0.09309791122798333	-1
1609.68017578125	-16.22960224504498	0.1080001589256279	-1
1618.7744140625	-16.23392954277152	0.100413168458634	-1
1627.86865234375	-16.23566046186214	0.1062833137287752	-1
1636.962890625	-16.24366596265626	0.09718691413056087	-1
1646.05712890625	-16.24619021966341	0.09723627629956699	-1
1655.1513671875	-16.24756053061015	0.09551065430234931	-1
1664.24560546875	-16.24655082780729	0.09734985521094985	-1
1673.33984375	-16.25131085530649	0.0965834926633925	-1
1682.43408203125	-16.2634994105696	0.08526860912141286	-1
1691.5283203125	-16.2661679108343	0.08052250840947858	-1
1700.62255859375	-16.28412619639947	0.06988426938500877	-1
1709.716796875	-16.28917471041378	0.05983848314689791	-1
1718.81103515625	-16.29883900866974	0.05418672794767395	-1
1727.9052734375	-16.28665045340663	0.05993995512458848	-1
1736.99951171875	-16.23854532701317	0.09209013703351787	-1
1746.09375	-16.19830145815628	0.1411231177623912	-1
1755.18798828125	-16.19512810649015	0.1461618136419017	-1
1764.2822265625	-16.24359384102748	0.1081177022487325	-1
1773.37646484375	-16.27164915462126	0.05943229175091795	-1
1782.470703125	-16.28275588545273	0.04370383867203671	-1
1791.56494140625	-16.28088072310456	0.04364276940684334	-1
1800.6591796875	-16.28268376382396	0.03749859314657862	-1
1809.75341796875	-16.29256442696624	0.03377845170105703	-1
1818.84765625	-16.29184321067848	0.02109217043158687	-1
1827.94189453125	-16.29703596795034	0.02333537138601247	-1
1837.0361328125	-16.28585711549009	0.02064273999128783	-1
1846.13037109375	-16.27597645234781	0.03144572092330612	-1
1855.224609375	-16.28275588545273	0.02906448448457904	-1
1864.31884765625	-16.3451410943438	-0.01873085628221064	-1
1873.4130859375	-16.40341537039463	-0.082343420647254	-1
1882.50732421875	-16.19361355228586	0.007326791988795725	-1
1891.6015625	-15.54170614978149	0.4975204495074085	-1
1900.69580078125	-14.22627976253984	1.49866881440082	-1
1909.7900390625	-15.34870867117747	1.437491392764328	-1
1918.88427734375	-16.22945800178743	-0.1551441906545241	-1
1927.978515625	-16.10093725930897	-0.3094006582103199	-1
1937.07275390625	-16.10915912498941	0.04840387967750542	-1
1946.1669921875	-16.1750061720617	-0.3036303320896083	-1
1955.26123046875	-16.1979408500124	-0.1412912731296473	-1
1964.35546875	-16.19700326883832	-0.266824309464419	-1
1973.44970703125	-16.18712260569604	-0.2080019315911935	-1
1982.5439453125	-16.18084802399254	-0.1906530752769788	-1
1991.63818359375	-16.17370798274374	-0.2392886828444167	-1
2000.732421875	-16.16252913028349	-0.1518979991631692	-1
2009.82666015625	-16.14053203350688	-0.226212799008469	-1
2018.9208984375	-16.13223804619766	-0.1286505681621947	-1
2028.01513671875	-16.12235738305538	-0.1990935425389264	-1
2037.109375	-16.08052683836542	-0.1261931313251215	-1
2046.20361328125	-16.05477941689246	-0.1216172740965075	-1
2055.2978515625	-16.0284550223893	-0.1085789769797236	-1
2064.39208984375	-16.00999188542269	-0.08182077291443109	-1
2073.486328125	-15.99131238356977	-0.1063541035830687	-1
2082.58056640625	-15.97277712497439	-0.0657072712892678	-1
2091.6748046875	-15.94291877066121	-0.09383672777335274	-1
2100.76904296875	-15.91955136293785	-0.04654634495902708	-1
2109.86328125	-15.88644753532977	-0.06710908804577911	-1
2118.95751953125	-15.86964319582501	-0.03945133074125923	-1
2128.0517578125	-15.86019526245538	-0.06099643066316071	-1
2137.14599609375	-15.86170981665967	-0.07702743372641346	-1
2146.240234375	-15.85269461306269	-0.08487548745952876	-1
2155.33447265625	-15.85918555965252	-0.1140932894638211	-1
2164.4287109375	-15.87014804722644	-0.1253191103924138	-1
2173.52294921875	-15.96066069134005	-0.2125130019328324	-1
2182.6171875	-16.01215553428597	-0.2851893993731552	-1
2191.71142578125	-16.06170309325494	-0.3398378187746461	-1
2200.8056640625	-16.10807730055777	-0.3722593411996777	-1
2209.89990234375	-16.15106179130814	-0.4219009456579923	-1
2218.994140625	-16.17861225350049	-0.435461405069812	-1
2228.08837890625	-16.19981601236058	-0.4488537930874091	-1
2237.1826171875	-16.20782151315469	-0.448873385592047	-1
2246.27685546875	-16.2179185411833	-0.436756066771793	-1
2255.37109375	-16.20948031061653	-0.4306997287105635	-1
2264.46533203125	-16.19786872838363	-0.3944196406157002	-1
2273.5595703125	-16.20385482357202	-0.388523898161992	-1
2282.65380859375	-16.20551362103386	-0.376839390219335	-1
2291.748046875	-16.19570507952036	-0.3619544233240626	-1
2300.84228515625	-16.20399906682957	-0.3457634415939362	-1
2309.9365234375	-16.1833722809997	-0.3323329395081798	-1
2319.03076171875	-16.1973638769822	-0.3137024090447004	-1
2328.125	-16.1973638769822	-0.3149933362997675	-1
2337.21923828125	-16.19390203880096	-0.303235024350521	-1
2346.3134765625	-16.20486452637488	-0.2884537424306348	-1
2355.40771484375	-16.21892824398616	-0.3035992957732293	-1
2364.501953125	-16.22368827148536	-0.2904121497199614	-1
2373.59619140625	-16.22318342008393	-0.285235684861802	-1
2382.6904296875	-16.23558834023337	-0.2756357953535857	-1
2391.78466796875	-16.23955502981604	-0.2747000205280074	-1
2400.87890625	-16.20782151315469	-0.246075949613377	-1
2409.97314453125	-16.15437938623183	-0.182952205806867	-1
2419.0673828125	-16.15639879183755	-0.1577785328009385	-1
2428.16162109375	-16.184237740545	-0.1759846851409118	-1
2437.255859375	-16.20854272944245	-0.200411382318082	-1
2446.35009765625	-16.23147740739315	-0.206914547293282	-1
2455.4443359375	-16.24200716519441	-0.2173143867847165	-1
2464.53857421875	-16.24698355757994	-0.2071027837511425	-1
2473.6328125	-16.24171867867931	-0.1958170104899193	-1
2482.72705078125	-16.25073388227628	-0.186352373522536	-1
2491.8212890625	-16.25989332913081	-0.1848766355412014	-1
2500.91552734375	-16.26890853272778	-0.1850408303472973	-1
2510.009765625	-16.26054242378979	-0.1676027299598672	-1
2519.10400390625	-16.24712780083749	-0.1471070712653675	-1
2528.1982421875	-16.27475038465862	-0.141395455639015	-1
2537.29248046875	-16.3665612180902	-0.2037112390109	-1
2546.38671875	-16.32588461946066	-0.213135496948289	-1
2555.48095703125	-15.93065809376932	0.06155585392077836	-1
2564.5751953125	-15.10630787686204	0.7268418153709727	-1
2573.66943359375	-14.3071281083975	1.506481893769533	-1
2582.763671875	-15.99650514084162	0.7930545852070513	-1
2591.85791015625	-16.17060675270638	-0.5836313540250293	-1
2600.9521484375	-16.08946992033362	-0.1420821858652124	-1
2610.04638671875	-16.13259865434154	-0.08470789318032765	-1
2619.140625	-16.17969407793213	-0.3756850780662659	-1
2628.23486328125	-16.1818577267954	-0.09210819023536643	-1
2637.3291015625	-16.18517532171909	-0.3296772127912717	-1
2646.42333984375	-16.17414071251639	-0.1327887911177945	-1
2655.517578125	-16.1657746035784	-0.2054773813618677	-1
2664.61181640625	-16.15156664270957	-0.1679352480798695	-1
2673.7060546875	-16.15560545392102	-0.1048337207838196	-1
2682.80029296875	-16.14594115566506	-0.1887175574912431	-1
2691.89453125	-16.1356998843789	-0.0511663419961596	-1
2700.98876953125	-16.1338968436595	-0.1562866508169621	-1
2710.0830078125	-16.11146701711023	-0.03483916072226943	-1
2719.17724609375	-16.07735348669928	-0.07449600507532453	-1
2728.271484375	-16.06228006628514	0.0005359682345776854	-1
2737.36572265625	-16.04194176697037	-0.002523374488726867	-1
2746.4599609375	-16.01071310171045	0.01479021041305889	-1
2755.55419921875	-16.00451064163573	0.06546953699786857	-1
2764.6484375	-15.99340391080426	0.01552350315059668	-1
2773.74267578125	-15.95929038039331	0.09472218422955728	-1
2782.8369140625	-15.91774832221846	0.07580374671806733	-1
2791.93115234375	-15.91334890286314	0.1347876443676208	-1
2801.025390625	-15.91875802502132	0.08198503369645012	-1
2810.11962890625	-15.9191186331652	0.09332780157163564	-1
2819.2138671875	-15.91666649778682	0.08225695024067403	-1
2828.30810546875	-15.93462478335199	0.05996734067010161	-1
2837.40234375	-15.96909892190682	0.04094530967422175	-1
2846.49658203125	-16.01417493989169	-0.02577758705628296	-1
2855.5908203125	-16.11694826089719	-0.07396266215206368	-1
2864.68505859375	-16.1517830075959	-0.1654191892653794	-1
2873.779296875	-16.19642629580811	-0.1527127119981099	-1
2882.87353515625	-16.23010709644641	-0.09829417662044458	-1
2891.9677734375	-16.25563815303304	0.005925970745310656	-1
2901.06201171875	-16.27200976276514	-0.04228266219248349	-1
2910.15625	-16.28297225033906	-0.05192888759613995	-1
2919.25048828125	-16.28780439946704	-0.01231910521477449	-1
2928.3447265625	-16.29681960306402	-0.04976423323170566	-1
2937.43896484375	-16.30201236033587	-0.006500088899915903	-1
2946.533203125	-16.28600135874764	-0.01892172929247043	-1
2955.62744140625	-16.27871707424129	0.02440053569682921	-1
2964.7216796875	-16.28845349412602	0.02001632855147016	-1
2973.81591796875	-16.2843425612858	0.018840636005199	-1
2982.91015625	-16.28729954806561	0.04256486527432385	-1
2992.00439453125	-16.29818991401076	0.02220500349253108	-1
3001.0986328125	-16.31319121279612	0.03292285998365719	-1
3010.19287109375	-16.32970706578578	0.00842741085195582	-1
3019.287109375	-16.34954051369912	0.01096036133235217	-1
3028.38134765625	-16.33352951211089	0.01046169666219171	-1
3037.4755859375	-16.34427563479849	0.03065361842130918	-1
3046.56982421875	-16.36778728577939	0.01322465648214316	-1
3055.6640625	-16.31874457821186	0.03084610145263113	-1
3064.75830078125	-16.28665045340663	0.09963135440545072	-1
3073.8525390625	-16.2822510340513	0.09748507172310014	-1
3082.94677734375	-16.30157963056322	0.09332097736444822	-1
3092.041015625	-16.33251980930803	0.06193474644998639	-1
3101.13525390625	-16.36677758297653	0.03258638167804044	-1
3110.2294921875	-16.39692442380481	0.007602748431592969	-1
3119.32373046875	-16.38884680138192	0.004008569542803474	-1
3128.41796875	-16.37644188123249	0.03114178340093377	-1
3137.51220703125	-16.37983159778495	0.03467074801858897	-1
3146.6064453125	-16.38149039524679	0.03491664216994602	-1
3155.70068359375	-16.38394253062517	0.03740198735315282	-1
3164.794921875	-16.38567344971579	0.03854603374798166	-1
3173.88916015625	-16.3841588955115	0.0412690770189554	-1
3182.9833984375	-16.39173166653296	0.04155103926934663	-1
3192.07763671875	-16.50582808325626	-0.0227360153475848	-1
3201.171875	-16.26054242378979	0.04597645925276205	-1
3210.26611328125	-15.56839115242853	0.5968639933027771	-1
3219.3603515625	-14.6169626256183	1.426588308581181	-1
3228.45458984375	-14.45670836647849	1.812472181322888	-1
3237.548828125	-15.65111466063436	0.9400288507911164	-1
3246.64306640625	-16.25794604515386	-0.2193358271895466	-1
3255.7373046875	-16.17392434763007	-0.2083055441194556	-1
3264.83154296875	-16.29580990026116	-0.1442609446768683	-1
3273.92578125	-16.32379309222616	-0.3372763801458568	-1
3283.02001953125	-16.33179859302027	-0.2388304603479838	-1
3292.1142578125	-16.32790402506638	-0.2787521054830682	-1
3301.20849609375	-16.33107737673252	-0.2506551502095975	-1
3310.302734375	-16.31910518635574	-0.2320245476078101	-1
3319.39697265625	-16.30482510385813	-0.2266955998552307	-1
3328.4912109375	-16.28008738518803	-0.1746674802644163	-1
3337.58544921875	-16.2753994793176	-0.1823081296217592	-1
3346.6796875	-16.27309158719678	-0.154665788120014	-1
3355.77392578125	-16.26111939682	-0.1636184684690959	-1
3364.8681640625	-16.24510839523177	-0.1307731192292826	-1
3373.96240234375	-16.22751071781048	-0.1214573920939235	-1
3383.056640625	-16.21171608110858	-0.1041994530408276	-1
3392.15087890625	-16.1768092127811	-0.07676902237245795	-1
3401.2451171875	-16.1514945210808	-0.0566546741387417	-1
3410.33935546875	-16.13281501922787	-0.03431859737598647	-1
3419.43359375	-16.11009670616349	-0.03475248611681493	-1
3428.52783203125	-16.08932567707607	-0.009568985756227222	-1
3437.6220703125	-16.08103168976685	-0.01772266721019666	-1
3446.71630859375	-16.07057405359436	-0.01486960378445979	-1
3455.810546875	-16.06134248511106	-0.01894296403873424	-1
3464.90478515625	-16.06011641742187	-0.02595065238138188	-1
3473.9990234375	-16.07309831060151	-0.04323642413120574	-1
3483.09326171875	-16.09862936718814	-0.07867937043570039	-1
3492.1875	-16.13555564112135	-0.1138230302106471	-1
3501.28173828125	-16.1747176855466	-0.1622188842166137	-1
3510.3759765625	-16.22484221754577	-0.2018033241604784	-1
3519.47021484375	-16.27049520856085	-0.251274377999537	-1
3528.564453125	-16.33511618794396	-0.2946240906368302	-1
3537.65869140625	-16.37139336721818	-0.3358010878132675	-1
3546.7529296875	-16.38610617948844	-0.3389788492777364	-1
3555.84716796875	-16.38884680138192	-0.3255345615933897	-1
3564.94140625	-16.38538496320069	-0.3135278245705154	-1
3574.03564453125	-16.38040857081516	-0.2882256744263809	-1
3583.1298828125	-16.38069705733026	-0.277773724403558	-1
3592.22412109375	-16.37290792142247	-0.2578205551793903	-1
3601.318359375	-16.36540727202979	-0.238739258171192	-1
3610.41259765625	-16.36511878551469	-0.2236853254136749	-1
3619.5068359375	-16.36050300127304	-0.2123062380174664	-1
3628.60107421875	-16.35660843331915	-0.1974966892405485	-1
3637.6953125	-16.35422841956954	-0.1845218011301395	-1
3646.78955078125	-16.35833935240976	-0.1795221947371103	-1
3655.8837890625	-16.36223392036366	-0.1735516998874331	-1
3664.97802734375	-16.38524071994313	-0.1811258003541671	-1
3674.072265625	-16.38250009804965	-0.1817476537873902	-1
3683.16650390625	-16.34889141904014	-0.1485650196484707	-1
3692.2607421875	-16.31398455071265	-0.101577633685685	-1
3701.35498046875	-16.30186811707832	-0.08014126732122794	-1
3710.44921875	-16.30316630639629	-0.07596962418161754	-1
3719.54345703125	-16.32920221438435	-0.09004808258557293	-1
3728.6376953125	-16.36266665013631	-0.1200218468641831	-1
3737.73193359375	-16.39411168028256	-0.1447273657446787	-1
3746.826171875	-16.39461653168399	-0.149701852621725	-1
3755.92041015625	-16.39440016679766	-0.1346058135983162	-1
3765.0146484375	-16.39908807266809	-0.1304001728712864	-1
3774.10888671875	-16.39851109963788	-0.1253554071141891	-1
3783.203125	-16.39750139683502	-0.1134891650000202	-1
3792.29736328125	-16.39649169403216	-0.106723894042799	-1
3801.3916015625	-16.40038626198605	-0.1000347029148542	-1
3810.48583984375	-16.44149559038825	-0.1177756920740691	-1
3819.580078125	-16.52789730166165	-0.1796372860902443	-1
3828.67431640625	-16.40795903300751	-0.1448625828008828	-1
3837.7685546875	-15.88183175108811	0.2415943375070165	-1
3846.86279296875	-14.91287766848537	1.031710414302299	-1
3855.95703125	-14.26955273980531	1.76037825294711	-1
3865.05126953125	-15.02387285517131	1.399229115393827	-1
3874.1455078125	-16.18113651050765	0.0710326618053912	-1
3883.23974609375	-16.19483961997505	-0.4370078222308403	-1
3892.333984375	-16.27705827677945	-0.2144076253672216	-1
3901.42822265625	-16.31910518635574	-0.3840474378221857	-1
3910.5224609375	-16.33425072839865	-0.3729213258476435	-1
3919.61669921875	-16.33958772892806	-0.3185452757587402	-1
3928.7109375	-16.32898584949802	-0.3663419346040303	-1
3937.80517578125	-16.31780699703777	-0.2687260517711385	-1
3946.8994140625	-16.30857542855447	-0.3006553571505329	-1
3955.99365234375	-16.30785421226671	-0.2484052547907896	-1
3965.087890625	-16.28946319692888	-0.2415819770263909	-1
3974.18212890625	-16.27323583045433	-0.2136503648297633	-1
3983.2763671875	-16.25758543700998	-0.1725121313699687	-1
3992.37060546875	-16.2387616918995	-0.1745106360831408	-1
4001.46484375	-16.22787132595436	-0.1226570750366563	-1
4010.55908203125	-16.18741109221114	-0.1224239598594068	-1
4019.6533203125	-16.16454853588921	-0.05919766452363293	-1
4028.74755859375	-16.14824904778589	-0.06195686155587447	-1
4037.841796875	-16.12762226195601	-0.03822732576745856	-1
4046.93603515625	-16.10699547612613	-0.01635080476436585	-1
4056.0302734375	-16.08752263635667	-0.01098723485851604	-1
4065.12451171875	-16.08110381139563	0.009943507479011224	-1
4074.21875	-16.06249643117147	-0.0008686601387518696	-1
4083.31298828125	-16.05016363265081	0.0259945667147756	-1
4092.4072265625	-16.05658245761186	0.006672505327661086	-1
4101.50146484375	-16.07100678336701	-0.005149239431864298	-1
4110.595703125	-16.09639359669609	-0.03398293670210142	-1
4119.68994140625	-16.14110900653708	-0.07265571186819086	-1
4128.7841796875	-16.1863292677795	-0.1162500792181644	-1
4137.87841796875	-16.21503367603227	-0.1122069733397687	-1
4146.97265625	-16.30085841427546	-0.1153121131348313	-1
4156.06689453125	-16.35538236562996	-0.215862082493553	-1
4165.1611328125	-16.35083870301708	-0.210885848629357	-1
4174.25537109375	-16.36057512290181	-0.1892803399293569	-1
4183.349609375	-16.37153761047573	-0.2095757818488084	-1
4192.44384765625	-16.38040857081516	-0.194981890005443	-1
4201.5380859375	-16.39728503194869	-0.2071076906044854	-1
4210.63232421875	-16.40795903300751	-0.2065219283193125	-1
4219.7265625	-16.40839176278016	-0.1997318148008706	-1
4228.82080078125	-16.41048329001466	-0.1902094079060651	-1
4237.9150390625	-16.41199784421895	-0.1797998062860697	-1
4247.00927734375	-16.41646938520305	-0.1767226896466022	-1
4256.103515625	-16.41791181777857	-0.1661662180309264	-1
4265.19775390625	-16.4321197786474	-0.1686774891543119	-1
4274.2919921875	-16.44077437410049	-0.1691411965640965	-1
4283.38623046875	-16.44942896955359	-0.1685507185483286	-1
4292.48046875	-16.45916538943832	-0.1658431642950921	-1
4301.57470703125	-16.44214468504723	-0.1525952297454224	-1
4310.6689453125	-16.39944868081197	-0.1074963179564099	-1
4319.76318359375	-16.382067368277	-0.07037452129332986	-1
4328.857421875	-16.38538496320069	-0.07046964258823552	-1
4337.95166015625	-16.41430573633978	-0.08481692959583539	-1
4347.0458984375	-16.48361462159331	-0.1357825710262176	-1
4356.14013671875	-16.51058811075546	-0.177907691367678	-1
4365.234375	-16.51246327310363	-0.1682863338267334	-1
4374.32861328125	-16.52140635507183	-0.1597396094382519	-1
4383.4228515625	-16.51707905734528	-0.1557954488420274	-1
4392.51708984375	-16.50618869140013	-0.1308715682200878	-1
4401.611328125	-16.51549238151221	-0.124114634106385	-1
4410.70556640625	-16.53107065332778	-0.1315231968496126	-1
4419.7998046875	-16.52227181461714	-0.123563841066853	-1
4428.89404296875	-16.54563922234049	-0.1190764282553509	-1
4437.98828125	-16.6445179753921	-0.1798217965942281	-1
4447.08251953125	-16.62309785164569	-0.2115757136282666	-1
4456.1767578125	-16.18257894308316	0.08000120146562895	-1
4465.27099609375	-15.21110060347326	0.8524052339499283	-1
4474.365234375	-14.36518601956201	1.724789835468888	-1
4483.45947265625	-16.1217082883964	0.9495770796955809	-1
4492.5537109375	-16.30915240158468	-0.497357299292311	-1
4501.64794921875	-16.33562103934539	-0.10574513794517	-1
4510.7421875	-16.43125431910209	-0.1606283113242759	-1
4519.83642578125	-16.49342316310682	-0.4616258483041522	-1
4528.9306640625	-16.50590020488503	-0.1792563281909122	-1
4538.02490234375	-16.49594742011397	-0.4256900375062267	-1
4547.119140625	-16.48830252746374	-0.2035205784727604	-1
4556.21337890625	-16.46305995739221	-0.2855754900163802	-1
4565.3076171875	-16.45613628102974	-0.2308463540202948	-1
4574.40185546875	-16.43284099493516	-0.1658775285376344	-1
4583.49609375	-16.39627532914583	-0.2192756382241758	-1
4592.59033203125	-16.37276367816492	-0.06228677327788255	-1
4601.6845703125	-16.36021451475794	-0.1750407489263628	-1
4610.77880859375	-16.35112718953219	-0.04986700845570641	-1
4619.873046875	-16.31362394256878	-0.1148083395636927	-1
4628.96728515625	-16.30684450946385	-0.03579962199039191	-1
4638.0615234375	-16.30309418476751	-0.06301338764481904	-1
4647.15576171875	-16.2634994105696	-0.05454571355572797	-1
4656.25	-16.22513070406088	0.02386511425736528	-1
4665.34423828125	-16.21481731114594	-0.02208847763440617	-1
4674.4384765625	-16.19642629580811	0.04027524934196836	-1
4683.53271484375	-16.17414071251639	-0.007676918705952843	-1
4692.626953125	-16.16678430638126	0.04687377691292989	-1
4701.72119140625	-16.1699576580474	-0.007306961622001319	-1
4710.8154296875	-16.16115881933675	0.008600562880066982	-1
4719.90966796875	-16.16245700865472	-0.00537481738282912	-1
4729.00390625	-16.17529465857681	-0.03202001379509351	-1
4738.09814453125	-16.19758024186853	-0.04405325249777458	-1
4747.1923828125	-16.23782411072542	-0.1068403479223657	-1
4756.28662109375	-16.32170156499166	-0.1494160748326222	-1
4765.380859375	-16.35841147403854	-0.237270933453668	-1
4774.47509765625	-16.39685230217604	-0.231513029323013	-1
4783.5693359375	-16.4279367241784	-0.2755768740785931	-1
4792.66357421875	-16.45959811921097	-0.284917939741138	101.5012906556531
4801.7578125	-16.46781998489141	-0.2879676124608668	101.5012906556531
4810.85205078125	-16.46140115993037	-0.2767405913122042	101.5012906556531
4819.9462890625	-16.4553429431132	-0.2426805532676612	101.5012906556531
4829.04052734375	-16.45649688917361	-0.2433310143165144	101.5012906556531
4838.134765625	-16.45483809171177	-0.2169746051439291	101.5012906556531
4847.22900390625	-16.44149559038825	-0.2087164300458695	101.5012906556531
4856.3232421875	-16.43284099493516	-0.1755441601918371	101.5012906556531
4865.41748046875	-16.43305735982148	-0.1701514839356003	101.5012906556531
4874.51171875	-16.43608646823007	-0.1616385244281783	101.5012906556531
4883.60595703125	-16.42873006209494	-0.1485977292406256	101.5012906556531
4892.7001953125	-16.46168964644547	-0.1560662589235281	101.5012906556531
4901.79443359375	-16.45736234871892	-0.1614005662239982	101.5012906556531
4910.888671875	-16.41949849361163	-0.1257406897120358	101.5012906556531
4919.98291015625	-16.37319640793758	-0.06420649700928488	101.5012906556531
4929.0771484375	-16.3454295808589	-0.03607443614524142	101.5012906556531
4938.17138671875	-16.35668055494792	-0.02407426776606188	101.5012906556531
4947.265625	-16.38134615198924	-0.05442107326734699	101.5012906556531
4956.35986328125	-16.42930703512514	-0.08447548210410653	101.5012906556531
4965.4541015625	-16.43875496849477	-0.1085079676837955	101.5012906556531
4974.54833984375	-16.43738465754803	-0.09798192014068734	101.5012906556531
4983.642578125	-16.44777017209174	-0.08988059190390575	101.5012906556531
4992.73681640625	-16.43349008959414	-0.09048314860424686	101.5012906556531
5001.8310546875	-16.41625302031672	-0.05291197421263251	101.5012906556531
5010.92529296875	-16.41863303406633	-0.05025316040288098	101.5012906556531
5020.01953125	-16.40464143808382	-0.03870104623301519	101.5012906556531
5029.11376953125	-16.42238335876267	-0.03460719387674555	101.5012906556531
5038.2080078125	-16.46818059303529	-0.07048493298232027	101.5012906556531
5047.30224609375	-16.54975015518071	-0.1289371840040912	101.5012906556531
5056.396484375	-16.36302725828019	-0.05790282527663654	101.5012906556531
5065.49072265625	-15.70585497687518	0.4334669991218815	101.5012906556531
5074.5849609375	-14.68915637602286	1.300558387344383	101.5012906556531
5083.67919921875	-14.35523323479095	1.843120572363839	101.5012906556531
5092.7734375	-16.23169377227947	0.681507616531876	101.5012906556531
5101.86767578125	-16.17882861838682	-0.5606637048441376	101.5012906556531
5110.9619140625	-16.24655082780729	-0.0204956839811602	101.5012906556531
5120.05615234375	-16.32134095684778	-0.2001959649512292	101.5012906556531
5129.150390625	-16.35293023025158	-0.3987652469821884	101.5012906556531
5138.24462890625	-16.36288301502264	-0.1269109911933202	101.5012906556531
5147.3388671875	-16.35841147403854	-0.3898206231585868	101.5012906556531
5156.43310546875	-16.33569316097417	-0.138766443812103	101.5012906556531
5165.52734375	-16.32451430851392	-0.2494042278782747	101.5012906556531
5174.62158203125	-16.30792633389549	-0.1739759707740732	101.5012906556531
5183.7158203125	-16.28989592670154	-0.1276334782422408	101.5012906556531
5192.81005859375	-16.27828434446863	-0.1812758972624234	101.5012906556531
5201.904296875	-16.26234546450919	-0.05558545145633659	101.5012906556531
5210.99853515625	-16.24186292193686	-0.1521060337703372	101.5012906556531
5220.0927734375	-16.2244816094019	-0.0158832787093432	101.5012906556531
5229.18701171875	-16.18236257819683	-0.08026030724532891	101.5012906556531
5238.28125	-16.18092014562132	0.009305129424285633	101.5012906556531
5247.37548828125	-16.14543630426363	0.03001466602409434	101.5012906556531
5256.4697265625	-16.11644340949576	0.1178658436688218	101.5012906556531
5265.56396484375	-16.11456824714759	0.1173157738148759	101.5012906556531
5274.658203125	-16.10778881404267	0.05334676451258645	101.5012906556531
5283.75244140625	-16.09632147506732	0.122055779328038	101.5012906556531
5292.8466796875	-16.08990265010627	0.03828164842754301	101.5012906556531
5301.94091796875	-16.07266558082886	0.1032778212984178	101.5012906556531
5311.03515625	-16.06934798590517	0.04503266073340333	101.5012906556531
5320.12939453125	-16.07756985158561	0.05767211357747601	101.5012906556531
5329.2236328125	-16.09098447453791	0.01516632189629129	101.5012906556531
5338.31787109375	-16.11853493673026	-0.02090329579185352	101.5012906556531
5347.412109375	-16.14673449358159	-0.04486030292213643	101.5012906556531
5356.50634765625	-16.1768092127811	-0.10704789754616	101.5012906556531
5365.6005859375	-16.23760774583909	-0.1257677299624225	101.5012906556531
5374.69482421875	-16.26645639734941	-0.2078200850710181	98.47140138235
5383.7890625	-16.28939107530011	-0.1918036992767309	98.47140138235
5392.88330078125	-16.31319121279612	-0.2334228997935428	98.47140138235
5401.9775390625	-16.33446709328498	-0.2374707317501404	98.47140138235
5411.07177734375	-16.33511618794396	-0.2411859415835934	98.47140138235
5420.166015625	-16.33309678233824	-0.2341239397536679	98.47140138235
5429.26025390625	-16.32703856552107	-0.2125077629944872	98.47140138235
5438.3544921875	-16.32098034870391	-0.2141625896694995	98.47140138235
5447.44873046875	-16.31131605044795	-0.1844152363810987	98.47140138235
5456.54296875	-16.30713299597895	-0.1882120728250991	98.47140138235
5465.63720703125	-16.30944088809978	-0.1713686122026656	98.47140138235
5474.7314453125	-16.30742148249406	-0.1781239999919271	98.47140138235
5483.82568359375	-16.3201148891586	-0.1728368524897302	98.47140138235
5492.919921875	-16.33251980930803	-0.1856939595310759	98.47140138235
5502.01416015625	-16.27078369507595	-0.1541214456456163	98.47140138235
5511.1083984375	-16.23739138095276	-0.08700960240952295	98.47140138235
5520.20263671875	-16.24280050311095	-0.09522435166560786	98.47140138235
5529.296875	-16.25996545075958	-0.1089208550796787	98.47140138235
5538.39111328125	-16.28665045340663	-0.1334965310826657	98.47140138235
5547.4853515625	-16.31759063215144	-0.1614340796456179	98.47140138235
5556.57958984375	-16.34030894521582	-0.1834655409433623	98.47140138235
5565.673828125	-16.34218410756399	-0.1870406091246746	98.47140138235
5574.76806640625	-16.35105506790341	-0.1824535141534139	98.47140138235
5583.8623046875	-16.36064724453059	-0.1885989204704848	98.47140138235
5592.95654296875	-16.35523812237241	-0.1821409681648817	98.47140138235
5602.05078125	-16.34939627044157	-0.1670501358964142	98.47140138235
5611.14501953125	-16.33771256657989	-0.153885877155307	98.47140138235
5620.2392578125	-16.33295253908069	-0.1405098827262915	98.47140138235
5629.33349609375	-16.35545448725873	-0.1474287959948118	98.47140138235
5638.427734375	-16.49457710916723	-0.2327626803784072	98.47140138235
5647.52197265625	-16.19310870088443	-0.13972859765886	98.47140138235
5656.6162109375	-15.41974847552162	0.496759848401423	98.47140138235
5665.71044921875	-14.46572357007546	1.361102797910316	98.47140138235
5674.8046875	-14.498683154426	1.61896756795518	98.47140138235
5683.89892578125	-15.7114804639197	0.6297678464133346	98.47140138235
5692.9931640625	-16.14565266914996	-0.3884211202703142	98.47140138235
5702.08740234375	-16.18488683520399	-0.331503264082244	98.47140138235
5711.181640625	-16.24308898962605	-0.3682154840111938	98.47140138235
5720.27587890625	-16.26486972151634	-0.4534902150530702	98.47140138235
5729.3701171875	-16.26263395102429	-0.3638271771121912	98.47140138235
5738.46435546875	-16.2614078833351	-0.4199367292390143	98.47140138235
5747.55859375	-16.25571027466181	-0.3455759401773412	98.47140138235
5756.65283203125	-16.24907508481444	-0.3651988827333105	98.47140138235
5765.7470703125	-16.23854532701317	-0.3255627436755306	98.47140138235
5774.84130859375	-16.22101977122066	-0.301780700822285	98.47140138235
5783.935546875	-16.21178820273736	-0.2910595848212141	98.47140138235
5793.02978515625	-16.20544149940509	-0.2555595732884932	98.47140138235
5802.1240234375	-16.1836607675148	-0.2605573528615297	98.47140138235
5811.21826171875	-16.16094245445042	-0.2015358443282916	98.47140138235
5820.3125	-16.14774419638446	-0.2062237728976215	98.47140138235
5829.40673828125	-16.12827135661499	-0.1698872696492423	98.47140138235
5838.5009765625	-16.10778881404267	-0.158333701159467	98.47140138235
5847.59521484375	-16.083555946774	-0.1321112464641652	98.47140138235
5856.689453125	-16.05788064692982	-0.1066737691267018	98.47140138235
5865.78369140625	-16.03494596897912	-0.09305142767892073	98.47140138235
5874.8779296875	-16.03011381985114	-0.07563427708468504	98.47140138235
5883.97216796875	-16.03494596897912	-0.09643954898013993	98.47140138235
5893.06640625	-16.03465748246401	-0.09152288480228035	98.47140138235
5902.16064453125	-16.03819144227403	-0.1056973808010412	98.47140138235
5911.2548828125	-16.05095697056735	-0.1105173020178826	98.47140138235
5920.34912109375	-16.06682372889802	-0.1331485465044817	98.47140138235
5929.443359375	-16.0814644195395	-0.1456527169625558	98.47140138235
5938.53759765625	-16.11839069347271	-0.1697643875255281	98.47140138235
5947.6318359375	-16.15950002187491	-0.2110890420886382	98.47140138235
5956.72607421875	-16.19570507952036	-0.2361687698293625	98.47140138235
5965.8203125	-16.23378529951397	-0.2649477502131521	98.47140138235
5974.91455078125	-16.30085841427546	-0.300856298571236	97.0232925384919
5984.0087890625	-16.30150750893444	-0.3219239751329986	97.0232925384919
5993.10302734375	-16.30605117154732	-0.2876259480288727	97.0232925384919
6002.197265625	-16.31369606419755	-0.281175485206992	97.0232925384919
6011.29150390625	-16.32985130904333	-0.2782219424344552	97.0232925384919
6020.3857421875	-16.33497194468641	-0.2638119412382919	97.0232925384919
6029.47998046875	-16.3227833894233	-0.2458369989458207	97.0232925384919
6038.57421875	-16.31030634764509	-0.2059205725096945	97.0232925384919
6047.66845703125	-16.30049780613158	-0.1864774143401848	97.0232925384919
6056.7626953125	-16.3230718759384	-0.176027357040547	97.0232925384919
6065.85693359375	-16.33489982305763	-0.1846723097236341	97.0232925384919
6074.951171875	-16.32884160624047	-0.1672323043218796	97.0232925384919
6084.04541015625	-16.29487231908707	-0.1248446796994724	97.0232925384919
6093.1396484375	-16.27085581670473	-0.08560411114994368	97.0232925384919
6102.23388671875	-16.26609578920553	-0.06029130525297971	97.0232925384919
6111.328125	-16.31751851052267	-0.08585423574424231	97.0232925384919
6120.42236328125	-16.33670286377703	-0.1116780076430107	97.0232925384919
6129.5166015625	-16.34881929741136	-0.1071987411870763	97.0232925384919
6138.61083984375	-16.35725752797813	-0.09974422457868737	97.0232925384919
6147.705078125	-16.35999814987161	-0.09492762966608738	97.0232925384919
6156.79931640625	-16.3704557860441	-0.08211735890072691	97.0232925384919
6165.8935546875	-16.36612848831755	-0.0751991419563758	97.0232925384919
6174.98779296875	-16.37485520539942	-0.06005087558210079	97.0232925384919
6184.08203125	-16.3731242863088	-0.05173471371122826	97.0232925384919
6193.17626953125	-16.37276367816492	-0.0387093088967429	97.0232925384919
6202.2705078125	-16.36814789392327	-0.01925918297678179	97.0232925384919
6211.36474609375	-16.44228892830478	-0.05087270813992698	97.0232925384919
6220.458984375	-16.53078216681268	-0.1250711686164772	97.0232925384919
6229.55322265625	-16.36216179873488	-0.05605384837081807	97.0232925384919
6238.6474609375	-15.77602932167403	0.4010528734193668	97.0232925384919
6247.74169921875	-14.38170187255167	1.43463152196485	97.0232925384919
6256.8359375	-15.3813797690129	1.52429952908328	97.0232925384919
6265.93017578125	-16.18618502452195	0.03783214183571836	97.0232925384919
6275.0244140625	-16.12827135661499	-0.1379370008223264	97.0232925384919
6284.11865234375	-16.19404628205851	0.148589802919211	97.0232925384919
6293.212890625	-16.27121642484861	-0.2226069751536669	97.0232925384919
6302.30712890625	-16.31037846927386	-0.04272585268829258	97.0232925384919
6311.4013671875	-16.31239787487959	-0.1797605406754986	97.0232925384919
6320.49560546875	-16.31585971306082	-0.1038334539039074	97.0232925384919
6329.58984375	-16.30504146874446	-0.08309252280049126	97.0232925384919
6338.68408203125	-16.29703596795034	-0.1135896039646447	97.0232925384919
6347.7783203125	-16.29602626514748	-0.0147774638943435	97.0232925384919
6356.87255859375	-16.28953531855766	-0.1004460259536249	97.0232925384919
6365.966796875	-16.27756312818088	0.01539903978517216	97.0232925384919
6375.06103515625	-16.26847580295513	-0.0464399424300266	97.0232925384919
6384.1552734375	-16.23219862368091	0.04045749718162209	97.0232925384919
6393.24951171875	-16.19779660675485	0.09697685225824808	97.0232925384919
6402.34375	-16.17716982092498	0.1747942650952948	97.0232925384919
6411.43798828125	-16.15964426513246	0.1733366256794774	97.0232925384919
6420.5322265625	-16.14889814244487	0.1473654624732254	97.0232925384919
6429.62646484375	-16.14240719585505	0.1915192813738183	97.0232925384919
6438.720703125	-16.1356998843789	0.12802141746458	97.0232925384919
6447.81494140625	-16.09927846184712	0.1928721145423328	97.0232925384919
6456.9091796875	-16.0883159742732	0.1605009798813596	97.0232925384919
6466.00341796875	-16.08427716306176	0.1763511047929571	97.0232925384919
6475.09765625	-16.08687354169769	0.1435102109478631	97.0232925384919
6484.19189453125	-16.08874870404586	0.1298851061963512	97.0232925384919
6493.2861328125	-16.09819663741549	0.1162723076150149	97.0232925384919
6502.38037109375	-16.11976100441945	0.06988170473417807	97.0232925384919
6511.474609375	-16.08528686586462	0.08614923100327082	97.0232925384919
6520.56884765625	-16.15495635926203	0.03980256674290676	97.0232925384919
6529.6630859375	-16.19729175535342	-0.02426449913926475	97.0232925384919
6538.75732421875	-16.25311389602588	-0.08754382200713848	97.0232925384919
6547.8515625	-16.2843425612858	-0.111109900648984	97.0232925384919
6556.94580078125	-16.32141307847656	-0.1579786290164254	108.1571129937287
6566.0400390625	-16.36547939365857	-0.1782997925206039	108.1571129937287
6575.13427734375	-16.34391502665461	-0.1897254859103952	108.1571129937287
6584.228515625	-16.31961003775717	-0.1430223343400841	108.1571129937287
6593.32275390625	-16.31261423976591	-0.1236375961102746	108.1571129937287
6602.4169921875	-16.31030634764509	-0.1315880070759207	108.1571129937287
6611.51123046875	-16.3162203212047	-0.1131783145174143	108.1571129937287
6620.60546875	-16.30612329317609	-0.1278613790149911	108.1571129937287
6629.69970703125	-16.32768766018005	-0.1124686328674626	108.1571129937287
6638.7939453125	-16.34052531010214	-0.1456504515738755	108.1571129937287
6647.88818359375	-16.30821482041059	-0.1196967252440202	108.1571129937287
6656.982421875	-16.22916951527232	-0.05293888782526526	108.1571129937287
6666.07666015625	-16.20890333758633	-0.01039881290883774	108.1571129937287
6675.1708984375	-16.22008219004657	-0.02077933678010047	108.1571129937287
6684.26513671875	-16.24914720644322	-0.05997315499051646	108.1571129937287
6693.359375	-16.27907768238517	-0.08173512427405509	108.1571129937287
6702.45361328125	-16.2977571842381	-0.1185037415810889	108.1571129937287
6711.5478515625	-16.31218150999326	-0.1205836064427569	108.1571129937287
6720.64208984375	-16.29617050840503	-0.1247743400831922	108.1571129937287
6729.736328125	-16.29465595420074	-0.1063191014893447	108.1571129937287
6738.83056640625	-16.31073907741774	-0.1190685530578789	108.1571129937287
6747.9248046875	-16.31946579449961	-0.1364992924721567	108.1571129937287
6757.01904296875	-16.29350200814033	-0.1147628214846586	108.1571129937287
6766.11328125	-16.28340498011172	-0.1000726033171569	108.1571129937287
6775.20751953125	-16.29487231908707	-0.1003734343166745	108.1571129937287
6784.3017578125	-16.42130153433103	-0.1838784794492523	108.1571129937287
6793.39599609375	-16.40759842486363	-0.2399091404221498	108.1571129937287
6802.490234375	-16.04259086162935	-0.0006548441503398256	108.1571129937287
6811.58447265625	-15.16963066692718	0.67854409499132	108.1571129937287
6820.6787109375	-14.29876199945951	1.519172477072437	108.1571129937287
6829.77294921875	-14.61580867955788	1.562024282298844	108.1571129937287
6838.8671875	-15.79023728254286	0.4124285779304419	108.1571129937287
6847.96142578125	-16.02448833280663	-0.3643741920700685	108.1571129937287
6857.0556640625	-16.14089264165076	-0.2755118138682473	108.1571129937287
6866.14990234375	-16.19693114720954	-0.419750764584715	108.1571129937287
6875.244140625	-16.21416821648696	-0.4491963489754111	108.1571129937287
6884.33837890625	-16.21849551421351	-0.3873385880895801	108.1571129937287
6893.4326171875	-16.22354402822781	-0.450169598861482	108.1571129937287
6902.52685546875	-16.21020152690429	-0.3716726120134297	108.1571129937287
6911.62109375	-16.19188263319524	-0.3889215036659652	108.1571129937287
6920.71533203125	-16.18510320009031	-0.3422195624338754	108.1571129937287
6929.8095703125	-16.18726684895359	-0.3433782297925976	108.1571129937287
6938.90380859375	-16.16656794149494	-0.3345123055219942	108.1571129937287
6947.998046875	-16.15113391293692	-0.2863499945596277	108.1571129937287
6957.09228515625	-16.1356998843789	-0.2947705099091724	108.1571129937287
6966.1865234375	-16.10836578707287	-0.2427401079731481	108.1571129937287
6975.28076171875	-16.09098447453791	-0.2403922448956541	108.1571129937287
6984.375	-16.0829789737438	-0.2131877068896399	108.1571129937287
6993.46923828125	-16.08160866279706	-0.2217533620684689	108.1571129937287
7002.5634765625	-16.04251874000057	-0.1958645510945914	108.1571129937287
7011.65771484375	-16.00494337140839	-0.152151147860867	108.1571129937287
7020.751953125	-16.00011122228041	-0.1463990360736676	108.1571129937287
7029.84619140625	-15.99888515459122	-0.1475960007944017	108.1571129937287
7038.9404296875	-15.98871600493384	-0.1542705953551921	108.1571129937287
7048.03466796875	-15.99376451894814	-0.1458505479698096	108.1571129937287
7057.12890625	-16.02181983254192	-0.18151633338332	108.1571129937287
7066.22314453125	-16.01330948034638	-0.1864741071300698	108.1571129937287
7075.3173828125	-16.0198004269362	-0.1848597040542498	108.1571129937287
7084.41162109375	-16.05319274105939	-0.2087550184672301	108.1571129937287
7093.505859375	-16.08341170351645	-0.2449468634900477	101.5012906556531
7102.60009765625	-16.12192465328272	-0.2701671302115689	101.5012906556531
7111.6943359375	-16.16902007687331	-0.3068562890600131	101.5012906556531
7120.78857421875	-16.19967176910302	-0.336472669034081	101.5012906556531
7129.8828125	-16.23703077280888	-0.3476047318349899	101.5012906556531
7138.97705078125	-16.24575748989075	-0.3600776986074759	101.5012906556531
7148.0712890625	-16.24525263848932	-0.3356182404337346	101.5012906556531
7157.16552734375	-16.24402657080013	-0.3205519715571781	101.5012906556531
7166.259765625	-16.22996285318886	-0.2964066650901523	101.5012906556531
7175.35400390625	-16.23219862368091	-0.272212933812097	101.5012906556531
7184.4482421875	-16.24885871992811	-0.2742793020474342	101.5012906556531
7193.54248046875	-16.22650101500762	-0.2542642991059436	101.5012906556531
7202.63671875	-16.20919182410143	-0.2139119237685207	101.5012906556531
7211.73095703125	-16.22520282568965	-0.2058017672005482	101.5012906556531
7220.8251953125	-16.23255923182478	-0.2129979530708205	101.5012906556531
7229.91943359375	-16.2089754592151	-0.1838094027874867	101.5012906556531
7239.013671875	-16.17789103721274	-0.1428478420151082	101.5012906556531
7248.10791015625	-16.16151942748063	-0.1118446463082929	101.5012906556531
7257.2021484375	-16.15437938623183	-0.09782714655021563	101.5012906556531
7266.29638671875	-16.20046510701956	-0.1145678522626081	101.5012906556531
7275.390625	-16.22390463637169	-0.1484051278405694	101.5012906556531
7284.48486328125	-16.2479932603828	-0.1546025034468725	101.5012906556531
7293.5791015625	-16.2479932603828	-0.1510939301730312	101.5012906556531
7302.67333984375	-16.21633186535023	-0.1227348062596355	101.5012906556531
7311.767578125	-16.23111679924927	-0.09486762770881647	101.5012906556531
7320.86181640625	-16.2271501096666	-0.1074572729808695	101.5012906556531
7329.9560546875	-16.22657313663639	-0.08438987522913388	101.5012906556531
7339.05029296875	-16.23710289443766	-0.08235334005691236	101.5012906556531
7348.14453125	-16.22967436667375	-0.08023350567656651	101.5012906556531
7357.23876953125	-16.24287262473972	-0.06292909485642201	101.5012906556531
7366.3330078125	-16.34326593199562	-0.1258072243202259	101.5012906556531
7375.42724609375	-16.38004796267128	-0.1843522741142075	101.5012906556531
7384.521484375	-16.07793045972949	-0.00498905607960673	101.5012906556531
7393.61572265625	-15.27420702865208	0.6236305919909297	101.5012906556531
7402.7099609375	-14.55573136278765	1.378834571992097	101.5012906556531
7411.80419921875	-15.70780226085213	0.9166718855301854	101.5012906556531
7420.8984375	-16.0084773312184	-0.1775353464437977	101.5012906556531
7429.99267578125	-16.02174771091315	-0.0246891084446583	101.5012906556531
7439.0869140625	-16.1020190837406	-0.02155708260854444	101.5012906556531
7448.18115234375	-16.1568315216102	-0.2504257454983367	101.5012906556531
7457.275390625	-16.1744291990315	-0.08186957535245668	101.5012906556531
7466.36962890625	-16.18048741584866	-0.2336316079087412	101.5012906556531
7475.4638671875	-16.16772188755535	-0.1068724255410033	101.5012906556531
7484.55810546875	-16.16238488702594	-0.1393953062880443	101.5012906556531
7493.65234375	-16.15466787274693	-0.1191567124570449	101.5012906556531
7502.74658203125	-16.14817692615711	-0.06849482724446165	101.5012906556531
7511.8408203125	-16.15243210225488	-0.1186603413627752	101.5012906556531
7520.93505859375	-16.15005208850528	0.009916324827447458	101.5012906556531
7530.029296875	-16.12971378919051	0.01470904458042629	101.5012906556531
7539.12353515625	-16.07569468923744	0.09192971957546753	101.5012906556531
7548.2177734375	-16.0511012138249	0.08170732539377842	101.5012906556531
7557.31201171875	-16.04864907844652	0.1173012149265026	101.5012906556531
7566.40625	-16.03739810435749	0.08731949537355671	101.5012906556531
7575.50048828125	-16.02044952159518	0.1039687911406202	101.5012906556531
7584.5947265625	-16.01453554803557	0.1124304397422127	101.5012906556531
7593.68896484375	-15.9831626395181	0.09581977957698885	101.5012906556531
7602.783203125	-15.94868850096327	0.1533070995231477	101.5012906556531
7611.87744140625	-15.95647763687106	0.1127830326932401	101.5012906556531
7620.9716796875	-15.95748733967392	0.118445045541238	101.5012906556531
7630.06591796875	-15.94746243327408	0.08639358015206675	101.5012906556531
7639.16015625	-15.95676612338616	0.09387396797115657	101.5012906556531
7648.25439453125	-15.97472440895133	0.04935022459854448	101.5012906556531
7657.3486328125	-15.97270500334561	0.03523952327626137	101.5012906556531
7666.44287109375	-16.02621925189725	0.005739853992832746	101.5012906556531
7675.537109375	-16.04987514613571	-0.06115908831250912	101.5012906556531
7684.63134765625	-16.08752263635667	-0.07176796113425485	101.5012906556531
7693.7255859375	-16.12214101816905	-0.1263483446496705	101.5012906556531
7702.81982421875	-16.14774419638446	-0.1423624263422202	108.1571129937287
7711.9140625	-16.16764976592657	-0.1644416722762868	108.1571129937287
7721.00830078125	-16.1768092127811	-0.1700317467419044	108.1571129937287
7730.1025390625	-16.1836607675148	-0.1700598408883616	108.1571129937287
7739.19677734375	-16.16620733335106	-0.1593005765711434	108.1571129937287
7748.291015625	-16.18531956497664	-0.1497567547263071	108.1571129937287
7757.38525390625	-16.17176069876679	-0.1573013724957581	108.1571129937287
7766.4794921875	-16.15632667020877	-0.1272633758691885	108.1571129937287
7775.57373046875	-16.1651976305482	-0.123902548783995	108.1571129937287
7784.66796875	-16.16115881933675	-0.1299574204844731	108.1571129937287
7793.76220703125	-16.16808249569923	-0.1207533505884341	108.1571129937287
7802.8564453125	-16.17349161785741	-0.1295169072179341	108.1571129937287
7811.95068359375	-16.17515041531926	-0.1276366143614642	108.1571129937287
7821.044921875	-16.1475999531269	-0.1078289349753767	108.1571129937287
7830.13916015625	-16.11262096317065	-0.07292670324427183	108.1571129937287
7839.2333984375	-16.10721184101246	-0.05262213720507446	108.1571129937287
7848.32763671875	-16.11117853059513	-0.065064850423381	108.1571129937287
7857.421875	-16.14132537142341	-0.08111124330036293	108.1571129937287
7866.51611328125	-16.18221833493928	-0.1227467641593311	108.1571129937287
7875.6103515625	-16.18481471357521	-0.1397967585767288	108.1571129937287
7884.70458984375	-16.1857522947493	-0.1266241965991297	108.1571129937287
7893.798828125	-16.20068147190588	-0.1365653618672306	108.1571129937287
7902.89306640625	-16.20746090501081	-0.1427145152744508	108.1571129937287
7911.9873046875	-16.20161905307997	-0.1354865157622614	108.1571129937287
7921.08154296875	-16.20082571516344	-0.1258382233465379	108.1571129937287
7930.17578125	-16.19902267444404	-0.12241039378516	108.1571129937287
7939.27001953125	-16.21186032436613	-0.1238807852670291	108.1571129937287
7948.3642578125	-16.23977139470236	-0.1424973903757927	108.1571129937287
7957.45849609375	-16.32119671359023	-0.195021639886263	108.1571129937287
7966.552734375	-16.22635677175007	-0.1770198221603225	108.1571129937287
7975.64697265625	-15.70268162520905	0.187239142337098	108.1571129937287
7984.7412109375	-14.75947496407926	0.970540489438558	108.1571129937287
7993.83544921875	-14.31585482547937	1.573832146884697	108.1571129937287
8002.9296875	-15.1487153945822	1.062042044253431	108.1571129937287
8012.02392578125	-15.94969820376613	-0.0515383046507394	108.1571129937287
8021.1181640625	-16.02917623867705	-0.3554446738496114	108.1571129937287
8030.21240234375	-16.09444631271915	-0.2789470293007687	108.1571129937287
8039.306640625	-16.12343920748701	-0.3929733286694732	108.1571129937287
8048.40087890625	-16.12394405888844	-0.3500314143793194	108.1571129937287
8057.4951171875	-16.11918403138924	-0.3416842454954308	108.1571129937287
8066.58935546875	-16.12755014032723	-0.3418728079466623	108.1571129937287
8075.68359375	-16.12682892403948	-0.3196643786187255	108.1571129937287
8084.77783203125	-16.08838809590198	-0.304509127544167	108.1571129937287
8093.8720703125	-16.0898305284775	-0.254470009924008	108.1571129937287
8102.96630859375	-16.0814644195395	-0.2687248611487344	108.1571129937287
8112.060546875	-16.07273770245763	-0.2392237813133793	108.1571129937287
8121.15478515625	-16.06660736401169	-0.2283970626406983	108.1571129937287
8130.2490234375	-16.05362547083205	-0.218387969250052	108.1571129937287
8139.34326171875	-16.04057145602363	-0.1905516199174749	108.1571129937287
8148.4375	-15.99830818156102	-0.1693550525510847	108.1571129937287
8157.53173828125	-15.97522926035276	-0.1220230044010892	108.1571129937287
8166.6259765625	-15.96599769186946	-0.1216492083596176	108.1571129937287
8175.72021484375	-15.95683824501494	-0.1120008244863682	108.1571129937287
8184.814453125	-15.92236410646011	-0.09149587119875796	108.1571129937287
8193.90869140625	-15.90188156388778	-0.0672961842015066	108.1571129937287
8203.0029296875	-15.90801190233373	-0.06806854603097937	108.1571129937287
8212.09716796875	-15.88889967070814	-0.07585775283887231	108.1571129937287
8221.19140625	-15.89055846816999	-0.06131716743910581	108.1571129937287
8230.28564453125	-15.89625607684327	-0.08233778667576663	108.1571129937287
8239.3798828125	-15.91053615934088	-0.09426622646056773	108.1571129937287
8248.47412109375	-15.9352017563822	-0.117931573261539	108.1571129937287
8257.568359375	-15.95806431270412	-0.1470015467522667	108.1571129937287
8266.66259765625	-15.99794757341714	-0.1720277129782933	97.0232925384919
8275.7568359375	-16.02448833280663	-0.2074543270849469	97.0232925384919
8284.85107421875	-16.07208860779865	-0.2308643825125216	97.0232925384919
8293.9453125	-16.11081792245125	-0.2689998029849063	97.0232925384919
8303.03955078125	-16.13130046502358	-0.2813495597347467	97.0232925384919
8312.1337890625	-16.14168597956729	-0.2749590097102931	97.0232925384919
8321.22802734375	-16.15214361573978	-0.2732614794951123	97.0232925384919
8330.322265625	-16.13930596581769	-0.2514776313966954	97.0232925384919
8339.41650390625	-16.12632407263805	-0.2229510864892577	97.0232925384919
8348.5107421875	-16.13317562737175	-0.2066411157913167	97.0232925384919
8357.60498046875	-16.12892045127397	-0.2006816588797503	97.0232925384919
8366.69921875	-16.12488164006253	-0.1789026904327103	97.0232925384919
8375.79345703125	-16.11940039627557	-0.1636900516842158	97.0232925384919
8384.8876953125	-16.1201937341921	-0.1519530341756865	97.0232925384919
8393.98193359375	-16.1148567336627	-0.1372842568400305	97.0232925384919
8403.076171875	-16.13786353324217	-0.1390539901554125	97.0232925384919
8412.17041015625	-16.15906729210225	-0.1520101991947161	97.0232925384919
8421.2646484375	-16.12250162631293	-0.1307201840443805	97.0232925384919
8430.35888671875	-16.09711481298385	-0.07559520682658499	97.0232925384919
8439.453125	-16.08038259510787	-0.05747395391169118	97.0232925384919
8448.54736328125	-16.08247412234237	-0.04566314343659052	97.0232925384919
8457.6416015625	-16.1243767886611	-0.06393865737013124	97.0232925384919
8466.73583984375	-16.14933087221752	-0.09953517449028433	97.0232925384919
8475.830078125	-16.16267337354104	-0.09597750715321278	97.0232925384919
8484.92431640625	-16.18077590236377	-0.103397187148142	97.0232925384919
8494.0185546875	-16.16844310384311	-0.0929547668227758	97.0232925384919
8503.11279296875	-16.17118372573659	-0.07072460112351157	97.0232925384919
8512.20703125	-16.17522253694803	-0.06965481005753696	97.0232925384919
8521.30126953125	-16.17875649675804	-0.06169358073141536	97.0232925384919
8530.3955078125	-16.17796315884151	-0.05119628854317281	97.0232925384919
8539.48974609375	-16.17147221225169	-0.03850635435543941	97.0232925384919
8548.583984375	-16.21279790554022	-0.04577421820260549	97.0232925384919
8557.67822265625	-16.32804826832393	-0.1254799724378317	97.0232925384919
8566.7724609375	-16.21777429792575	-0.1102756387526084	97.0232925384919
8575.86669921875	-15.66034622911766	0.3000217299340587	97.0232925384919
8584.9609375	-14.64545066898473	1.136537078335548	97.0232925384919
8594.05517578125	-14.08859957320685	1.838780600530247	97.0232925384919
8603.1494140625	-14.95434760503144	1.355687108161813	97.0232925384919
8612.24365234375	-15.88702450835997	0.1132621183664031	97.0232925384919
8621.337890625	-15.99311542428916	-0.2719097601176165	97.0232925384919
8630.43212890625	-16.08463777120564	-0.1863208647663229	97.0232925384919
8639.5263671875	-16.1178137204425	-0.3203545423696199	97.0232925384919
8648.62060546875	-16.13548351949257	-0.276750693691412	97.0232925384919
8657.71484375	-16.10901488173186	-0.2555736557778835	97.0232925384919
8666.80908203125	-16.09624935343854	-0.1567560591754041	97.0232925384919
8675.9033203125	-16.09733117787018	-0.03464717165931597	97.0232925384919
8684.99755859375	-16.09329236665873	-0.09509624147518703	97.0232925384919
8694.091796875	-16.1064906247247	-0.06312428674470602	97.0232925384919
8703.18603515625	-16.0943020694616	-0.06832203114086338	97.0232925384919
8712.2802734375	-16.07490135132091	-0.04994471226356297	97.0232925384919
8721.37451171875	-16.07475710806336	-0.02285098375246832	97.0232925384919
8730.46875	-15.99888515459122	-0.005177071116460336	97.0232925384919
8739.56298828125	-16.00710702027166	0.05687928906293979	97.0232925384919
8748.6572265625	-15.99282693777406	0.01934175701947694	97.0232925384919
8757.75146484375	-15.98085474739727	0.04360660529070937	97.0232925384919
8766.845703125	-15.95741521804514	0.05765125405929392	97.0232925384919
8775.93994140625	-15.92813383676217	0.06505153138300639	97.0232925384919
8785.0341796875	-15.92005621433928	0.0905287764228838	97.0232925384919
8794.12841796875	-15.89099119794264	0.07645262471946121	97.0232925384919
8803.22265625	-15.92258047134644	0.08084862034154483	97.0232925384919
8812.31689453125	-15.90844463210638	0.04044210894634448	97.0232925384919
8821.4111328125	-15.92647503930033	0.04308065935054337	97.0232925384919
8830.50537109375	-15.90289126669065	0.03336006205066015	97.0232925384919
8839.599609375	-15.90015064479717	0.03383883485944481	97.0232925384919
8848.69384765625	-15.93426417520811	0.01663541073064827	97.0232925384919
8857.7880859375	-15.97465228732256	-0.05371221894665083	97.0232925384919
8866.88232421875	-15.98503780186627	-0.06112107218567266	97.0232925384919
8875.9765625	-16.0308350361389	-0.101605673407693	97.0232925384919
8885.07080078125	-16.07396377014682	-0.1449961223374234	97.0232925384919
8894.1650390625	-16.16000487327634	-0.2069925036777256	99.96339231238561
8903.25927734375	-16.16166367073818	-0.24417069002388	99.96339231238561
8912.353515625	-16.15603818369367	-0.2101376639301001	99.96339231238561
8921.44775390625	-16.13065137036459	-0.1894590965705446	99.96339231238561
8930.5419921875	-16.11290944968575	-0.1586391268621383	99.96339231238561
8939.63623046875	-16.11947251790435	-0.1482171134410917	99.96339231238561
8948.73046875	-16.115722193208	-0.1521002842333397	99.96339231238561
8957.82470703125	-16.13548351949257	-0.1490973885362603	99.96339231238561
8966.9189453125	-16.13966657396157	-0.1611902430876525	99.96339231238561
8976.01318359375	-16.13101197850847	-0.1487930151932671	99.96339231238561
8985.107421875	-16.10548092192184	-0.1206936827638116	99.96339231238561
8994.20166015625	-16.11132277385268	-0.1123933148819653	99.96339231238561
9003.2958984375	-16.12617982938049	-0.1215618635807033	99.96339231238561
9012.39013671875	-16.14327265540036	-0.138472707198017	99.96339231238561
9021.484375	-16.11694826089719	-0.1222156383810768	99.96339231238561
9030.57861328125	-16.08795536612933	-0.08696676093040701	99.96339231238561
9039.6728515625	-16.05477941689246	-0.05573995489945971	99.96339231238561
9048.76708984375	-16.07446862154825	-0.05479734959426599	99.96339231238561
9057.861328125	-16.10360575957367	-0.08987668911585046	99.96339231238561
9066.95556640625	-16.14233507422627	-0.1221901358493674	99.96339231238561
9076.0498046875	-16.10245181351326	-0.1140927277015522	99.96339231238561
9085.14404296875	-16.09978331324856	-0.07913607253877611	99.96339231238561
9094.23828125	-16.12791074847111	-0.1024402605471376	99.96339231238561
9103.33251953125	-16.11882342324536	-0.11600269761812	99.96339231238561
9112.4267578125	-16.12697316729703	-0.09751264992337895	99.96339231238561
9121.52099609375	-16.14146961468096	-0.1197418579166383	99.96339231238561
9130.615234375	-16.14168597956729	-0.1196295706228793	99.96339231238561
9139.70947265625	-16.11355854434473	-0.09730213696783704	99.96339231238561
9148.8037109375	-16.10778881404267	-0.07962006933520593	99.96339231238561
9157.89794921875	-16.17882861838682	-0.1161488271988111	99.96339231238561
9166.9921875	-15.97385894940602	-0.05327988092091142	99.96339231238561
9176.08642578125	-15.26641789274429	0.472574100738646	99.96339231238561
9185.1806640625	-14.31520573082039	1.316782882889321	99.96339231238561
9194.27490234375	-14.30640689210974	1.622254560758154	99.96339231238561
9203.369140625	-15.45862203343177	0.6718175334867772	99.96339231238561
9212.46337890625	-15.88024507525505	-0.3010397313950779	99.96339231238561
9221.5576171875	-15.86358497900784	-0.2362166631505694	99.96339231238561
9230.65185546875	-15.98943722122159	-0.2779522556899804	99.96339231238561
9239.74609375	-16.00350093883287	-0.4201708026438082	99.96339231238561
9248.84033203125	-16.01799738621681	-0.3288706945584363	99.96339231238561
9257.9345703125	-16.02225256231458	-0.3893728320912616	99.96339231238561
9267.02880859375	-16.02023315670886	-0.3459740489504157	99.96339231238561
9276.123046875	-16.0081888447033	-0.3376554870922244	99.96339231238561
9285.21728515625	-15.99253845125895	-0.3205048266121578	99.96339231238561
9294.3115234375	-16.02419984629152	-0.3054657522030063	99.96339231238561
9303.40576171875	-15.97140681402765	-0.3145677693728062	99.96339231238561
9312.5	-15.95669400175738	-0.2337122821464832	99.96339231238561
9321.59423828125	-15.94508241952448	-0.2487363023516659	99.96339231238561
9330.6884765625	-15.94529878441081	-0.2286857208375678	99.96339231238561
9339.78271484375	-15.91233920006027	-0.2095940220218194	99.96339231238561
9348.876953125	-15.88558207578446	-0.1798138561792619	99.96339231238561
9357.97119140625	-15.87649475055871	-0.1553425213891345	99.96339231238561
9367.0654296875	-15.86884985790847	-0.1662144006209155	99.96339231238561
9376.15966796875	-15.86077223548558	-0.1447776656400678	99.96339231238561
9385.25390625	-15.8118737711756	-0.1296493558297263	99.96339231238561
9394.34814453125	-15.79615125610247	-0.08780408189664078	99.96339231238561
9403.4423828125	-15.81064770348641	-0.1088409699707622	99.96339231238561
9412.53662109375	-15.79240093140613	-0.1153342605554202	99.96339231238561
9421.630859375	-15.78158268708977	-0.0927896068655763	99.96339231238561
9430.72509765625	-15.81656167704602	-0.1246436405408522	99.96339231238561
9439.8193359375	-15.85918555965252	-0.1679619947144264	99.96339231238561
9448.91357421875	-15.84937701813901	-0.1846109956365143	99.96339231238561
9458.0078125	-15.86755166859051	-0.1741966788944158	99.96339231238561
9467.10205078125	-15.91486345706743	-0.217778580400149	99.96339231238561
9476.1962890625	-15.96599769186946	-0.2639096691777795	99.96339231238561
9485.29052734375	-15.99340391080426	-0.2867529342756865	99.96339231238561
9494.384765625	-16.01994467019375	-0.3010441602333449	99.96339231238561
9503.47900390625	-16.05117333545367	-0.3111702773069321	99.96339231238561
9512.5732421875	-16.06841040473109	-0.3240265012314207	99.96339231238561
9521.66748046875	-16.05290425454429	-0.2977879802772185	99.96339231238561
9530.76171875	-16.03162837405543	-0.2611896934165462	99.96339231238561
9539.85595703125	-16.03018594147991	-0.2361098548286131	99.96339231238561
9548.9501953125	-16.04143691556894	-0.2331397308364602	99.96339231238561
9558.04443359375	-16.04619694306814	-0.2282923056680724	99.96339231238561
9567.138671875	-16.05759216041472	-0.2193522463551299	99.96339231238561
9576.23291015625	-16.07389164851805	-0.2227196404590764	99.96339231238561
9585.3271484375	-16.04590845655304	-0.1984628363214924	99.96339231238561
9594.42138671875	-16.02102649462539	-0.1518669612728136	99.96339231238561
9603.515625	-16.03811932064525	-0.141653349988474	99.96339231238561
9612.60986328125	-16.06530917469373	-0.1632373848320418	99.96339231238561
9621.7041015625	-16.07021344545048	-0.1611252176571464	99.96339231238561
9630.79833984375	-16.05816913344492	-0.1408442277893495	99.96339231238561
9639.892578125	-16.00905430424861	-0.09493480553835593	99.96339231238561
9648.98681640625	-15.99953424925021	-0.05324959640244697	99.96339231238561
9658.0810546875	-16.01417493989169	-0.06113472205168893	99.96339231238561
9667.17529296875	-16.05535638992267	-0.08497500320024809	99.96339231238561
9676.26953125	-16.07252133757131	-0.1040874163580663	99.96339231238561
9685.36376953125	-16.08254624397114	-0.1022893873369285	99.96339231238561
9694.4580078125	-16.08074320325175	-0.09041400370856501	99.96339231238561
9703.55224609375	-16.108005178929	-0.09451863222085889	99.96339231238561
9712.646484375	-16.12055434233598	-0.1031050084246716	99.96339231238561
9721.74072265625	-16.11673189601087	-0.09134041885918236	99.96339231238561
9730.8349609375	-16.09170569082567	-0.05767273461432401	99.96339231238561
9739.92919921875	-16.09913421858957	-0.03981283858645421	99.96339231238561
9749.0234375	-16.09076810965158	-0.03355503898432537	99.96339231238561
9758.11767578125	-16.08918143381851	-0.01582063218609832	99.96339231238561
9767.2119140625	-16.17140009062291	-0.05024357533797237	99.96339231238561
9776.30615234375	-16.05975580927799	-0.03277491638064951	99.96339231238561
9785.400390625	-15.42407577324817	0.4095714212539358	99.96339231238561
9794.49462890625	-14.50647229033378	1.237928056166745	99.96339231238561
9803.5888671875	-14.36114720835056	1.630188701417149	99.96339231238561
9812.68310546875	-15.40842537980382	0.8386658631085489	99.96339231238561
9821.77734375	-15.88385115669384	-0.1239383223811465	99.96339231238561
9830.87158203125	-15.89264999540448	-0.1313647968988768	99.96339231238561
9839.9658203125	-16.07857955438847	-0.1775639178414703	99.96339231238561
9849.06005859375	-16.03689325295606	-0.3252935471598993	99.96339231238561
9858.154296875	-16.01626646712619	-0.1542264697565571	99.96339231238561
9867.24853515625	-16.04093206416751	-0.1920878169759555	99.96339231238561
9876.3427734375	-16.04251874000057	-0.1634431829684475	99.96339231238561
9885.43701171875	-16.04792786215876	-0.1510951737196353	99.96339231238561
9894.53125	-16.04309571303078	-0.1719890073383258	99.96339231238561
9903.62548828125	-16.03775871250137	-0.1241625985184044	99.96339231238561
9912.7197265625	-16.01850223761824	-0.1405010363177378	99.96339231238561
9921.81396484375	-16.00710702027166	-0.09137002565164185	99.96339231238561
9930.908203125	-15.99585604618264	-0.09999376484772336	99.96339231238561
9940.00244140625	-15.98272990974544	-0.07629396135669696	99.96339231238561
9949.0966796875	-15.97522926035276	-0.06696007614227459	99.96339231238561
9958.19091796875	-15.96311282671843	-0.06569642940641074	99.96339231238561
9967.28515625	-15.94984244702368	-0.04247167753836666	99.96339231238561
9976.37939453125	-15.91681074104437	-0.03540107630075663	99.96339231238561
9985.4736328125	-15.90498279392514	-0.002357315515650114	99.96339231238561
9994.56787109375	-15.89012573839733	-0.01288277746772957	99.96339231238561
10003.662109375	-15.87375412866523	0.00532638791587533	99.96339231238561
10012.75634765625	-15.87368200703645	0.0004546730338006325	99.96339231238561
10021.8505859375	-15.86416195203805	-0.006858933840234375	99.96339231238561
10030.94482421875	-15.85759888381945	-0.001432494735515413	99.96339231238561
10040.0390625	-15.86928258768113	-0.01975204478035346	99.96339231238561
10049.13330078125	-15.89387606309367	-0.04488967728479375	99.96339231238561
10058.2275390625	-15.9256817013838	-0.08419188549985961	99.96339231238561
10067.32177734375	-15.95200609588696	-0.1121650113704104	99.96339231238561
10076.416015625	-15.99051904565323	-0.1470161079783493	99.96339231238561
10085.51025390625	-16.02484894095051	-0.1803307913038438	99.96339231238561
10094.6044921875	-16.05874610647513	-0.20894281168082	98.47140138235
10103.69873046875	-16.10576940843695	-0.2400517814465656	98.47140138235
10112.79296875	-16.12351132911579	-0.263434503220168	98.47140138235
10121.88720703125	-16.1270452889258	-0.2536165358960665	98.47140138235
10130.9814453125	-16.12654043752437	-0.2408575954974811	98.47140138235
10140.07568359375	-16.12776650521356	-0.232633046054343	98.47140138235
10149.169921875	-16.13692595206809	-0.2233748564657639	98.47140138235
10158.26416015625	-16.12985803244806	-0.2180339265503571	98.47140138235
10167.3583984375	-16.11377490923106	-0.1886995962320285	98.47140138235
10176.45263671875	-16.11211611176922	-0.1733476092677049	98.47140138235
10185.546875	-16.11637128786699	-0.1700975058939625	98.47140138235
10194.64111328125	-16.12286223445681	-0.1668084490618058	98.47140138235
10203.7353515625	-16.12581922123662	-0.1646859399033152	98.47140138235
10212.82958984375	-16.12812711335744	-0.1572468691220654	98.47140138235
10221.923828125	-16.13505078971992	-0.1555118289576131	98.47140138235
10231.01806640625	-16.14745570986935	-0.157321495014224	98.47140138235
10240.1123046875	-16.1568315216102	-0.1609483688677717	98.47140138235
10249.20654296875	-16.12069858559353	-0.1355212521894574	98.47140138235
10258.30078125	-16.08730627147034	-0.08691879775321128	98.47140138235
10267.39501953125	-16.0785074327597	-0.06777584625256977	98.47140138235
10276.4892578125	-16.08903719056096	-0.0737875282128496	98.47140138235
10285.58349609375	-16.11658765275331	-0.09084435274253336	98.47140138235
10294.677734375	-16.15034057502038	-0.1215508028234853	98.47140138235
10303.77197265625	-16.15712000812531	-0.1324026780658512	98.47140138235
10312.8662109375	-16.16469277914677	-0.1269008868066371	98.47140138235
10321.96044921875	-16.17702557766743	-0.1315745737403492	98.47140138235
10331.0546875	-16.17067887433516	-0.12664123155469	98.47140138235
10340.14892578125	-16.1541630213455	-0.1028835886464118	98.47140138235
10349.2431640625	-16.15308119691386	-0.0891046678603416	98.47140138235
10358.33740234375	-16.15546121066346	-0.08880905884193105	98.47140138235
10367.431640625	-16.15214361573978	-0.08205168140834838	98.47140138235
10376.52587890625	-16.15719212975408	-0.07789946803868306	98.47140138235
10385.6201171875	-16.29415110279931	-0.1506022808379335	98.47140138235
10394.71435546875	-16.20118632330732	-0.1746134446582002	98.47140138235
10403.80859375	-15.6894112455143	0.2024352013491537	98.47140138235
10412.90283203125	-14.74050697571123	0.9825658493353826	98.47140138235
10421.9970703125	-14.13720955100174	1.673903253691134	98.47140138235
10431.09130859375	-14.91150735753863	1.296079997053876	98.47140138235
10440.185546875	-15.88579844067078	0.06159931189662096	98.47140138235
10449.27978515625	-15.96621405675579	-0.3599570519296044	98.47140138235
10458.3740234375	-16.04828847030264	-0.2365106158401623	98.47140138235
10467.46826171875	-16.07944501393378	-0.3790008794770657	98.47140138235
10476.5625	-16.08362806840278	-0.3384702311495439	98.47140138235
10485.65673828125	-16.08463777120564	-0.318769513566916	98.47140138235
10494.7509765625	-16.08860446078831	-0.3369593475489693	98.47140138235
10503.84521484375	-16.08975840684872	-0.292253400841911	98.47140138235
10512.939453125	-16.07497347294968	-0.303976897380544	98.47140138235
10522.03369140625	-16.05045211916591	-0.2448189852366503	98.47140138235
10531.1279296875	-16.04749513238611	-0.2381543083593006	98.47140138235
10540.22216796875	-16.03097927939645	-0.2183696895453055	98.47140138235
10549.31640625	-16.01633858875496	-0.1901430178748456	98.47140138235
10558.41064453125	-15.99600028944019	-0.1753154730523518	98.47140138235
10567.5048828125	-15.98352324766198	-0.1449446378875605	98.47140138235
10576.59912109375	-15.97133469239887	-0.1417698583361036	98.47140138235
10585.693359375	-15.95460247452289	-0.1157981335511457	98.47140138235
10594.78759765625	-15.92820595839095	-0.09986499587901704	98.47140138235
10603.8818359375	-15.90238641528921	-0.06885320708075601	98.47140138235
10612.97607421875	-15.87772081824789	-0.05048169205578167	98.47140138235
10622.0703125	-15.86329649249274	-0.03664749006923403	98.47140138235
10631.16455078125	-15.85103581560085	-0.02918574463943481	98.47140138235
10640.2587890625	-15.84800670719227	-0.03198602205126083	98.47140138235
10649.35302734375	-15.85817585684965	-0.03900473080985134	98.47140138235
10658.447265625	-15.87461958821054	-0.06486092286515739	98.47140138235
10667.54150390625	-15.89156817097285	-0.07968463877311469	98.47140138235
10676.6357421875	-15.92820595839095	-0.1122878770632079	98.47140138235
10685.72998046875	-15.96340131323353	-0.1470602382482341	98.47140138235
10694.82421875	-16.00854945284718	-0.1822193586363355	98.47140138235
10703.91845703125	-16.04648542958325	-0.2157061621539079	98.47140138235
10713.0126953125	-16.07987774370644	-0.2376433392286798	98.47140138235
10722.10693359375	-16.15618242695122	-0.2786883326791917	97.0232925384919
10731.201171875	-16.17897286164437	-0.315033687442156	97.0232925384919
10740.29541015625	-16.17140009062291	-0.2870914489325652	97.0232925384919
10749.3896484375	-16.16065396793532	-0.2527189662522293	97.0232925384919
10758.48388671875	-16.16541399543452	-0.2394569213635209	97.0232925384919
10767.578125	-16.16332246820003	-0.2184850055922154	97.0232925384919
10776.67236328125	-16.16397156285901	-0.2049046072252998	97.0232925384919
10785.7666015625	-16.15675939998143	-0.1809320684203631	97.0232925384919
10794.86083984375	-16.16656794149494	-0.1693572619738686	97.0232925384919
10803.955078125	-16.18106438887887	-0.1679430775693461	97.0232925384919
10813.04931640625	-16.16375519797268	-0.1497787178497179	97.0232925384919
10822.1435546875	-16.13461805994726	-0.1054728205580517	97.0232925384919
10831.23779296875	-16.15221573736855	-0.08905765539427354	97.0232925384919
10840.33203125	-16.15077330479304	-0.09694016838268824	97.0232925384919
10849.42626953125	-16.16288973842737	-0.08070440816629759	97.0232925384919
10858.5205078125	-16.21214881088124	-0.1063555336587543	97.0232925384919
10867.61474609375	-16.17753042906886	-0.1024201989654089	97.0232925384919
10876.708984375	-16.13050712710704	-0.02670305673199939	97.0232925384919
10885.80322265625	-16.11709250415474	0.00437227471113569	97.0232925384919
10894.8974609375	-16.11348642271596	0.00984866417256725	97.0232925384919
10903.99169921875	-16.124088302146	0.01657256356144051	97.0232925384919
10913.0859375	-16.15856244070082	-0.007370331817217961	97.0232925384919
10922.18017578125	-16.18012680770478	-0.02671471078558331	97.0232925384919
10931.2744140625	-16.20854272944245	0.04468780213626103	97.0232925384919
10940.36865234375	-16.20818212129857	0.1348451758471734	97.0232925384919
10949.462890625	-16.22426524451557	0.09467947862106373	97.0232925384919
10958.55712890625	-16.22044279819045	0.0914762836632127	97.0232925384919
10967.6513671875	-16.21568277069125	0.1181877991846435	97.0232925384919
10976.74560546875	-16.21777429792575	0.09934199707442769	97.0232925384919
10985.83984375	-16.21986582516025	0.1156517290388155	97.0232925384919
10994.93408203125	-16.26789882992492	0.07738328531967886	97.0232925384919
11004.0283203125	-16.37507157028575	0.0006181950978846884	97.0232925384919
11013.12255859375	-16.36793152903694	-0.04301032315564005	97.0232925384919
11022.216796875	-15.96614193512701	0.2105929499999243	97.0232925384919
11031.31103515625	-15.05200029039387	0.9371723893346853	97.0232925384919
11040.4052734375	-14.26919213166143	1.743509451800177	97.0232925384919
11049.49951171875	-14.76127800479865	1.62890879406805	97.0232925384919
11058.59375	-16.02138710276927	0.3590251414345851	97.0232925384919
11067.68798828125	-16.07547832435111	-0.308665547499454	97.0232925384919
11076.7822265625	-16.16216852213961	-0.07538561007441669	97.0232925384919
11085.87646484375	-16.22484221754577	-0.2476156729355104	97.0232925384919
11094.970703125	-16.25491693674528	-0.2913730043532479	97.0232925384919
11104.06494140625	-16.27979889867293	-0.2214287878385783	97.0232925384919
11113.1591796875	-16.29674748143524	-0.3222068199110078	97.0232925384919
11122.25341796875	-16.3046087389718	-0.2309853702364132	97.0232925384919
11131.34765625	-16.32552401131678	-0.2896830937019112	97.0232925384919
11140.44189453125	-16.31347969931122	-0.2467737544329348	97.0232925384919
11149.5361328125	-16.30374327942649	-0.2189004811685567	97.0232925384919
11158.63037109375	-16.29205957556481	-0.2131876289600644	97.0232925384919
11167.724609375	-16.28729954806561	-0.1639707122789299	97.0232925384919
11176.81884765625	-16.28326073685416	-0.1858951196837561	97.0232925384919
11185.9130859375	-16.27612069560536	-0.1344652118247128	97.0232925384919
11195.00732421875	-16.26530245128899	-0.1479861697086207	97.0232925384919
11204.1015625	-16.25938847772938	-0.1081504499795587	97.0232925384919
11213.19580078125	-16.26032605890346	-0.1161041370267203	97.0232925384919
11222.2900390625	-16.25441208534385	-0.1034090346465885	97.0232925384919
11231.38427734375	-16.25556603140426	-0.09113303291845074	97.0232925384919
11240.478515625	-16.25700846397978	-0.100391491984293	97.0232925384919
11249.57275390625	-16.23392954277152	-0.06936328823755231	97.0232925384919
11258.6669921875	-16.23537197534704	-0.0690046039835146	97.0232925384919
11267.76123046875	-16.28571287223254	-0.08517036310609215	97.0232925384919
11276.85546875	-16.29963234658627	-0.1332701998697964	97.0232925384919
11285.94970703125	-16.30713299597895	-0.113721806859583	97.0232925384919
11295.0439453125	-16.33706347192091	-0.1359323418060715	97.0232925384919
11304.13818359375	-16.40327112713708	-0.1798207893750458	97.0232925384919
11313.232421875	-16.3999535322134	-0.1963736551276182	97.0232925384919
11322.32666015625	-16.41892152058143	-0.1835718655023751	97.0232925384919
11331.4208984375	-16.51563662476976	-0.2294816295676437	97.0232925384919
11340.51513671875	-16.54664892514336	-0.2975682159335442	97.0232925384919
11349.609375	-16.56496781885241	-0.2656507828589455	97.0232925384919
11358.70361328125	-16.59814376808927	-0.2831528631738178	97.0232925384919
11367.7978515625	-16.62706454122836	-0.2894069770715126	97.0232925384919
11376.89208984375	-16.60701472842869	-0.262233984974687	97.0232925384919
11385.986328125	-16.59886498437703	-0.2232307610892569	97.0232925384919
11395.08056640625	-16.612063242443	-0.2043250752721742	97.0232925384919
11404.1748046875	-16.66463990982055	-0.2307122244430115	97.0232925384919
11413.26904296875	-16.66637082891117	-0.2290529553928315	97.0232925384919
11422.36328125	-16.64653738099782	-0.1932315910784347	97.0232925384919
11431.45751953125	-16.64812405683089	-0.1567589971530553	97.0232925384919
11440.5517578125	-16.66168292304074	-0.1594718310744629	97.0232925384919
11449.64599609375	-16.6698326670924	-0.1465564400349425	97.0232925384919
11458.740234375	-16.66543324773708	-0.1305907419566409	97.0232925384919
11467.83447265625	-16.70005162954946	-0.1292250969311494	97.0232925384919
11476.9287109375	-16.71050926572195	-0.1377608620595737	97.0232925384919
11486.02294921875	-16.6972388860272	-0.1149346876647552	97.0232925384919
11495.1171875	-16.65396590876173	-0.05925538473628422	97.0232925384919
11504.21142578125	-16.63160820384124	-0.02074050060208394	97.0232925384919
11513.3056640625	-16.63939733974902	-0.003198049705416733	97.0232925384919
11522.39990234375	-16.66536112610831	-0.02425822276643361	97.0232925384919
11531.494140625	-16.68461760099144	-0.03216872743013546	97.0232925384919
11540.58837890625	-16.73943003886104	-0.06023992999572895	97.0232925384919
11549.6826171875	-16.72594329427997	-0.07076929425515674	97.0232925384919
11558.77685546875	-16.72587117265119	-0.03457862631033042	97.0232925384919
11567.87109375	-16.73553547090715	-0.03618064816014351	97.0232925384919
11576.96533203125	-16.76258108169807	-0.04603498553097023	97.0232925384919
11586.0595703125	-16.75789317582764	-0.04176573636136893	97.0232925384919
11595.15380859375	-16.73481425461939	-0.01290774214491587	97.0232925384919
11604.248046875	-16.72089478026566	0.01984697892307935	97.0232925384919
11613.34228515625	-16.73870882257328	0.0166426806749144	97.0232925384919
11622.4365234375	-16.81616745187849	-0.02776613691070056	97.0232925384919
11631.53076171875	-16.89427517584267	-0.1027688582873358	97.0232925384919
11640.625	-16.65850957137461	0.00932678786682848	97.0232925384919
11649.71923828125	-15.90851675373516	0.5808074042539941	97.0232925384919
11658.8134765625	-14.87840352993054	1.490924470639119	97.0232925384919
11667.90771484375	-14.704229796437	1.930059071409745	97.0232925384919
11677.001953125	-16.48996132492558	0.7125378045228632	97.0232925384919
11686.09619140625	-16.4982553122348	-0.457872025615733	97.0232925384919
11695.1904296875	-16.56338114301934	0.008623958692725916	97.0232925384919
11704.28466796875	-16.62648756819815	-0.1560917329366214	97.0232925384919
11713.37890625	-16.66990478872118	-0.3268265901176363	97.0232925384919
11722.47314453125	-16.68093939792388	-0.1095440658047724	97.0232925384919
11731.5673828125	-16.67084236989527	-0.3263819945674391	97.0232925384919
11740.66162109375	-16.66947205894853	-0.1159806091393592	97.0232925384919
11749.755859375	-16.65944715254869	-0.2265556148917856	97.0232925384919
11758.85009765625	-16.64040704255188	-0.1485514834106281	97.0232925384919
11767.9443359375	-16.6418494751274	-0.1191300201103855	97.0232925384919
11777.03857421875	-16.64163311024107	-0.1802124223130255	97.0232925384919
11786.1328125	-16.61364991827606	-0.06434158920749228	97.0232925384919
11795.22705078125	-16.57960850949389	-0.127474082156099	97.0232925384919
11804.3212890625	-16.55746716945972	-0.001897073380370224	97.0232925384919
11813.41552734375	-16.54390830324988	-0.07001040473659578	97.0232925384919
11822.509765625	-16.52573365279837	0.0003295395852819335	97.0232925384919
11831.60400390625	-16.50820809700586	-0.0143201640045589	97.0232925384919
11840.6982421875	-16.49226921704641	-0.0003480230438338405	97.0232925384919
11849.79248046875	-16.47409456659491	0.02984884637018704	97.0232925384919
11858.88671875	-16.45959811921097	0.002573114014355251	97.0232925384919
11867.98095703125	-16.45281868610605	0.04974256364805658	97.0232925384919
11877.0751953125	-16.43709617103293	0.002064286647659987	97.0232925384919
11886.16943359375	-16.43190341376107	0.05077976602108285	97.0232925384919
11895.263671875	-16.43284099493516	0.002659810951006358	97.0232925384919
11904.35791015625	-16.42865794046616	0.02062661149674671	97.0232925384919
11913.4521484375	-16.42829733232228	0.002553655101627712	97.0232925384919
11922.54638671875	-16.44567864485725	-0.01605265110621645	97.0232925384919
11931.640625	-16.49544256871254	-0.05103565657331988	97.0232925384919
11940.73486328125	-16.60795230960278	-0.1581697555952482	97.0232925384919
11949.8291015625	-16.63333912293185	-0.2060197960375103	97.0232925384919
11958.92333984375	-16.66781326148668	-0.2270949655880644	97.0232925384919
11968.017578125	-16.68865641220289	-0.2281718484855033	97.0232925384919
11977.11181640625	-16.70228740004151	-0.2513596494803678	97.0232925384919
11986.2060546875	-16.70870622500256	-0.2253732934909037	97.0232925384919
11995.30029296875	-16.71952446931892	-0.2368581710562409	97.0232925384919
12004.39453125	-16.73265060575612	-0.2262745794636987	97.0232925384919
12013.48876953125	-16.68180485746919	-0.1939479508697959	97.0232925384919
12022.5830078125	-16.66435142330544	-0.1425116735612038	97.0232925384919
12031.67724609375	-16.65951927417747	-0.1261131365916094	97.0232925384919
12040.771484375	-16.64682586751293	-0.1250784864369114	97.0232925384919
12049.86572265625	-16.6468979891417	-0.09262749665978683	97.0232925384919
12058.9599609375	-16.6582210848595	-0.1156326916462853	97.0232925384919
12068.05419921875	-16.67120297803914	-0.1073387289267637	97.0232925384919
12077.1484375	-16.67949696534836	-0.1204547087658054	97.0232925384919
12086.24267578125	-16.69868131860272	-0.1216165754791005	97.0232925384919
12095.3369140625	-16.7056049949652	-0.1273035761454996	97.0232925384919
12104.43115234375	-16.68634852008206	-0.1129072296353209	97.0232925384919
12113.525390625	-16.65173013826968	-0.06601037598658988	97.0232925384919
12122.61962890625	-16.6370894476282	-0.0472518417306657	97.0232925384919
12131.7138671875	-16.62771363588734	-0.02818107960720441	97.0232925384919
12140.80810546875	-16.62958879823551	-0.0317244475757076	97.0232925384919
12149.90234375	-16.66564961262341	-0.0449113139751449	97.0232925384919
12158.99658203125	-16.68396850633246	-0.01056707083050461	97.0232925384919
12168.0908203125	-16.69161339898269	0.06639379999325937	97.0232925384919
12177.18505859375	-16.71079775223705	0.01812020670455993	97.0232925384919
12186.279296875	-16.7222650912124	-0.002655699099139818	97.0232925384919
12195.37353515625	-16.72803482151447	0.01068896460391713	97.0232925384919
12204.4677734375	-16.72904452431733	-0.01804106635693508	97.0232925384919
12213.56201171875	-16.71880325303117	0.01073502828638248	97.0232925384919
12222.65625	-16.70452317053356	0.005227249815028385	97.0232925384919
12231.75048828125	-16.71800991511463	0.01217967567205674	97.0232925384919
12240.8447265625	-16.81674442490869	-0.05835336136595985	97.0232925384919
12249.93896484375	-16.8426360896392	-0.1298761304205297	97.0232925384919
12259.033203125	-16.52292090927612	0.06337322602913185	97.0232925384919
12268.12744140625	-15.73015996577263	0.6695775440737406	97.0232925384919
12277.2216796875	-14.9711519445362	1.432700968518444	97.0232925384919
12286.31591796875	-16.28650621014907	0.8899567842580555	97.0232925384919
12295.41015625	-16.44257741481989	-0.2419323013192324	97.0232925384919
12304.50439453125	-16.50077956924195	0.006749555470153316	97.0232925384919
12313.5986328125	-16.57578606316877	-0.06103153284582397	97.0232925384919
12322.69287109375	-16.61848206740404	-0.2998960168512501	97.0232925384919
12331.787109375	-16.6165347834271	-0.08214886881491501	97.0232925384919
12340.88134765625	-16.60650987702726	-0.2795508251414757	97.0232925384919
12349.9755859375	-16.61458749945015	-0.1272262581684082	97.0232925384919
12359.06982421875	-16.60174984952806	-0.2132748208795116	97.0232925384919
12368.1640625	-16.59569163271089	-0.1821360285064647	97.0232925384919
12377.25830078125	-16.60037953858132	-0.1487080396453286	97.0232925384919
12386.3525390625	-16.59460980827926	-0.2286070797172439	97.0232925384919
12395.44677734375	-16.5780939552896	-0.1172021995356727	97.0232925384919
12404.541015625	-16.55905384529279	-0.2031872688725547	97.0232925384919
12413.63525390625	-16.54217738415925	-0.09978740252114411	97.0232925384919
12422.7294921875	-16.5304215586688	-0.1609475212043995	97.0232925384919
12431.82373046875	-16.53049368029758	-0.1203621735195659	97.0232925384919
12440.91796875	-16.52140635507183	-0.1386682480397562	97.0232925384919
12450.01220703125	-16.49796682571969	-0.1357118581599321	97.0232925384919
12459.1064453125	-16.47928732386676	-0.09086401389186517	97.0232925384919
12468.20068359375	-16.46926241746693	-0.1313703897180634	97.0232925384919
12477.294921875	-16.46262722761956	-0.08490730906253306	97.0232925384919
12486.38916015625	-16.43882709012355	-0.1267456892515367	97.0232925384919
12495.4833984375	-16.44127922550192	-0.08305690929864279	97.0232925384919
12504.57763671875	-16.43024461629923	-0.1259973398719014	97.0232925384919
12513.671875	-16.43233614353373	-0.1098935612493136	97.0232925384919
12522.76611328125	-16.44221680667601	-0.1336500379454711	97.0232925384919
12531.8603515625	-16.45974236246853	-0.1649735031647577	97.0232925384919
12540.95458984375	-16.47899883735166	-0.1726114295770826	97.0232925384919
12550.048828125	-16.50496262371095	-0.2228722727412607	97.0232925384919
12559.14306640625	-16.5575392910885	-0.2407552598420619	97.0232925384919
12568.2373046875	-16.58920068612107	-0.3071648347432704	97.0232925384919
12577.33154296875	-16.61134202615524	-0.3026897904437811	97.0232925384919
12586.42578125	-16.62309785164569	-0.3239138124784172	101.5012906556531
12595.52001953125	-16.6284348521751	-0.3172979256865862	101.5012906556531
12604.6142578125	-16.63175244709879	-0.3105998477741899	101.5012906556531
12613.70849609375	-16.62504513562264	-0.3066841632579507	101.5012906556531
12622.802734375	-16.61191899918545	-0.276898914785384	101.5012906556531
12631.89697265625	-16.60016317369499	-0.268470679729521	101.5012906556531
12640.9912109375	-16.59785528157417	-0.2462473865104017	101.5012906556531
12650.08544921875	-16.59345586221884	-0.2484241367650166	101.5012906556531
12659.1796875	-16.58501763165208	-0.2289226264893826	101.5012906556531
12668.27392578125	-16.58112306369818	-0.2221543086704129	101.5012906556531
12677.3681640625	-16.58393580722044	-0.2178609667544757	101.5012906556531
12686.46240234375	-16.60470683630787	-0.2257008285730243	101.5012906556531
12695.556640625	-16.59698982202886	-0.2311942151976986	101.5012906556531
12704.65087890625	-16.55746716945972	-0.1903740255722007	101.5012906556531
12713.7451171875	-16.53604704571331	-0.1579545531556068	101.5012906556531
12722.83935546875	-16.53503734291045	-0.1503504018060425	101.5012906556531
12731.93359375	-16.54477376279519	-0.1593934278073196	101.5012906556531
12741.02783203125	-16.5664823730567	-0.1723602252016164	101.5012906556531
12750.1220703125	-16.59749467343029	-0.1994495993585105	101.5012906556531
12759.21630859375	-16.61242385058688	-0.2151395035079272	101.5012906556531
12768.310546875	-16.61768872948751	-0.2140312901506175	101.5012906556531
12777.40478515625	-16.61538083736668	-0.2069160830943204	101.5012906556531
12786.4990234375	-16.61595781039689	-0.1975028521518831	101.5012906556531
12795.59326171875	-16.61213536407177	-0.1898959316048663	101.5012906556531
12804.6875	-16.61545295899546	-0.1814846265964255	101.5012906556531
12813.78173828125	-16.61689539157097	-0.1789303597019333	101.5012906556531
12822.8759765625	-16.61545295899546	-0.1708256201013727	101.5012906556531
12831.97021484375	-16.68252607375694	-0.1983143005522093	101.5012906556531
12841.064453125	-16.78717455711061	-0.2872755146873325	101.5012906556531
12850.15869140625	-16.63838763694616	-0.2385820091508233	101.5012906556531
12859.2529296875	-16.05773640367227	0.2019755808200784	101.5012906556531
12868.34716796875	-15.15426875999794	0.9783268485803098	101.5012906556531
12877.44140625	-14.89556847757918	1.450941744301953	101.5012906556531
12886.53564453125	-15.83336601655078	0.7911769513029003	101.5012906556531
12895.6298828125	-16.35769025775078	-0.1719194780591629	101.5012906556531
12904.72412109375	-16.46241086273323	-0.2860575837711741	101.5012906556531
12913.818359375	-16.54102343809884	-0.3173980597872281	101.5012906556531
12922.91259765625	-16.57088179241202	-0.4129996508197557	101.5012906556531
12932.0068359375	-16.58198852324349	-0.3457163193026157	101.5012906556531
12941.10107421875	-16.58768613191678	-0.3859135196133048	101.5012906556531
12950.1953125	-16.58696491562902	-0.3367065486916493	101.5012906556531
12959.28955078125	-16.57290119801774	-0.3275666948026579	101.5012906556531
12968.3837890625	-16.56568903514016	-0.2977734176545186	101.5012906556531
12977.47802734375	-16.55025500658215	-0.2644881462852935	101.5012906556531
12986.572265625	-16.54210526253048	-0.255403906157436	101.5012906556531
12995.66650390625	-16.53857130272046	-0.2181567796177888	101.5012906556531
13004.7607421875	-16.52227181461714	-0.2193539553094384	101.5012906556531
13013.85498046875	-16.51498753011078	-0.1746582381947667	101.5012906556531
13022.94921875	-16.503015339734	-0.174215011856337	101.5012906556531
13032.04345703125	-16.45721810546137	-0.1251846015045513	101.5012906556531
13041.1376953125	-16.44012527944151	-0.08665411464340009	101.5012906556531
13050.23193359375	-16.41993122338429	-0.07659618297193452	101.5012906556531
13059.326171875	-16.40435295156872	-0.04832216632263024	101.5012906556531
13068.42041015625	-16.39742927520624	-0.04556348162155965	101.5012906556531
13077.5146484375	-16.38271646293598	-0.02936704767082177	101.5012906556531
13086.60888671875	-16.36713819112041	-0.01898926276475747	101.5012906556531
13095.703125	-16.36086360941692	-0.005515576916801959	101.5012906556531
13104.79736328125	-16.36208967710611	-0.01195459428652935	101.5012906556531
13113.8916015625	-16.37067215093042	-0.01611745112027459	101.5012906556531
13122.98583984375	-16.3933904639948	-0.03565252178838252	101.5012906556531
13132.080078125	-16.42332093993675	-0.06283597925242361	101.5012906556531
13141.17431640625	-16.45635264591606	-0.08913584251036674	101.5012906556531
13150.2685546875	-16.48318189182066	-0.1140767041778172	101.5012906556531
13159.36279296875	-16.50784748886198	-0.1262078479380734	101.5012906556531
13168.45703125	-16.55429381779359	-0.15411200585818	95.61715786402101
13177.55126953125	-16.571530887071	-0.1720945802323965	95.61715786402101
13186.6455078125	-16.59100372684047	-0.1695551682655939	95.61715786402101
13195.73974609375	-16.59814376808927	-0.1656873042144383	95.61715786402101
13204.833984375	-16.61357779664729	-0.1611975783362857	95.61715786402101
13213.92822265625	-16.61797721600261	-0.1516394991871279	95.61715786402101
13223.0224609375	-16.62547786539529	-0.1417842382269342	95.61715786402101
13232.11669921875	-16.62504513562264	-0.1256773796631919	95.61715786402101
13241.2109375	-16.6263433249406	-0.1107290098429866	95.61715786402101
13250.30517578125	-16.63788278554473	-0.1004232834984027	95.61715786402101
13259.3994140625	-16.62793000077367	-0.0870708434909276	95.61715786402101
13268.49365234375	-16.62417967607733	-0.06055983095337402	95.61715786402101
13277.587890625	-16.61797721600261	-0.04295396496976778	95.61715786402101
13286.68212890625	-16.62994940637939	-0.03563003558079158	95.61715786402101
13295.7763671875	-16.63824339368861	-0.03160850201493878	95.61715786402101
13304.87060546875	-16.55162531752889	0.02118506678640395	95.61715786402101
13313.96484375	-16.5209015036704	0.1070722151077991	95.61715786402101
13323.05908203125	-16.53294581567595	0.09637886573571045	95.61715786402101
13332.1533203125	-16.52796942329042	0.09168709542811615	95.61715786402101
13341.24755859375	-16.53402764010759	0.1070794761534574	95.61715786402101
13350.341796875	-16.55350047987706	0.1373023482292744	95.61715786402101
13359.43603515625	-16.57802183366082	0.184033248382541	95.61715786402101
13368.5302734375	-16.61624629691199	0.1185493416086682	95.61715786402101
13377.62451171875	-16.6331948796743	0.09510474981889837	95.61715786402101
13386.71875	-16.64358039421802	0.09889957553236639	95.61715786402101
13395.81298828125	-16.61797721600261	0.09426968423919407	95.61715786402101
13404.9072265625	-16.60636563376971	0.1340952018450519	95.61715786402101
13414.00146484375	-16.59792740320294	0.1255084139445111	95.61715786402101
13423.095703125	-16.59590799759722	0.1341771602213771	95.61715786402101
13432.18994140625	-16.59936983577846	0.1288624008373934	95.61715786402101
13441.2841796875	-16.74318036355738	0.04268486234463734	95.61715786402101
13450.37841796875	-16.52681547723001	0.0790661121756817	95.61715786402101
13459.47265625	-15.86070011385681	0.5964594376240189	95.61715786402101
13468.56689453125	-14.97144043105131	1.39313850325635	95.61715786402101
13477.6611328125	-14.86066160925169	1.713971253546978	95.61715786402101
13486.75537109375	-15.85154066700228	0.9505709110031972	95.61715786402101
13495.849609375	-16.3206918621888	-0.001855191749590094	95.61715786402101
13504.94384765625	-16.43284099493516	-0.07852038886610624	95.61715786402101
13514.0380859375	-16.50856870514974	-0.1500358290778376	95.61715786402101
13523.13232421875	-16.54737014143111	-0.2488109983454708	95.61715786402101
13532.2265625	-16.53121489658533	-0.1780876067023734	95.61715786402101
13541.32080078125	-16.53474885639535	-0.2220562208863754	95.61715786402101
13550.4150390625	-16.54499012768151	-0.1788103706918044	95.61715786402101
13559.50927734375	-16.55126470938501	-0.217030817318688	95.61715786402101
13568.603515625	-16.54758650631744	-0.1897123882230697	95.61715786402101
13577.69775390625	-16.51902634132222	-0.1710779047238405	95.61715786402101
13586.7919921875	-16.50496262371095	-0.1505576452713436	95.61715786402101
13595.88623046875	-16.49068254121334	-0.1220902407064691	95.61715786402101
13604.98046875	-16.48404735136597	-0.134087222602443	95.61715786402101
13614.07470703125	-16.4711375798151	-0.0996360018960476	95.61715786402101
13623.1689453125	-16.45822780826423	-0.1117857973387065	95.61715786402101
13632.26318359375	-16.44502955019826	-0.08029153402658183	95.61715786402101
13641.357421875	-16.42058031804327	-0.0798224524115657	95.61715786402101
13650.45166015625	-16.39620320751705	-0.05028455380429846	95.61715786402101
13659.5458984375	-16.37463884051309	-0.03673991926937058	95.61715786402101
13668.64013671875	-16.36432544759816	-0.03563710615698212	95.61715786402101
13677.734375	-16.36302725828019	-0.03138742278675853	95.61715786402101
13686.82861328125	-16.36757092089307	-0.05591039794521534	95.61715786402101
13695.9228515625	-16.3615127040759	-0.04980552686906437	95.61715786402101
13705.01708984375	-16.3612242175608	-0.06516356144549465	95.61715786402101
13714.111328125	-16.3636042313104	-0.0656717097747232	95.61715786402101
13723.20556640625	-16.37608127308861	-0.08834892652504056	95.61715786402101
13732.2998046875	-16.39584259937318	-0.1077866974441215	95.61715786402101
13741.39404296875	-16.42966764326902	-0.1411232836003107	95.61715786402101
13750.48828125	-16.44777017209174	-0.1709069033101645	95.61715786402101
13759.58251953125	-16.46789210652019	-0.1816756590478424	95.61715786402101
13768.6767578125	-16.49075466284211	-0.2067999413052575	95.61715786402101
13777.77099609375	-16.53193611287309	-0.2309387701892995	95.61715786402101
13786.865234375	-16.54643256025703	-0.2572922932937307	99.96339231238561
13795.95947265625	-16.55054349309725	-0.2483031146745428	99.96339231238561
13805.0537109375	-16.55371684476338	-0.2443859543901457	99.96339231238561
13814.14794921875	-16.5465046818858	-0.2349479724960552	99.96339231238561
13823.2421875	-16.56186658881505	-0.2277318225518145	99.96339231238561
13832.33642578125	-16.54390830324988	-0.2249774780320894	99.96339231238561
13841.4306640625	-16.5307100451839	-0.1923964123073416	99.96339231238561
13850.52490234375	-16.5238584904502	-0.1812026640873928	99.96339231238561
13859.619140625	-16.50402504253686	-0.1656305194890968	99.96339231238561
13868.71337890625	-16.51246327310363	-0.1513848416998914	99.96339231238561
13877.8076171875	-16.52414697696531	-0.1686308262637638	99.96339231238561
13886.90185546875	-16.54470164116641	-0.1767370721692055	99.96339231238561
13895.99609375	-16.5664823730567	-0.1936017251097468	99.96339231238561
13905.09033203125	-16.56554479188261	-0.1972625606969263	99.96339231238561
13914.1845703125	-16.4964522715154	-0.1447967944995738	99.96339231238561
13923.27880859375	-16.49104314935722	-0.1000825221894156	99.96339231238561
13932.373046875	-16.51397782730792	-0.1234359483348474	99.96339231238561
13941.46728515625	-16.53539795105433	-0.148075737803266	99.96339231238561
13950.5615234375	-16.55580837199788	-0.1555409249562053	99.96339231238561
13959.65576171875	-16.57261271150264	-0.1756835525853354	99.96339231238561
13968.75	-16.57239634661631	-0.1692149654165907	99.96339231238561
13977.84423828125	-16.57636303619898	-0.1645143048839347	99.96339231238561
13986.9384765625	-16.57679576597164	-0.1605391914606116	99.96339231238561
13996.03271484375	-16.57953638786512	-0.1535882354882957	99.96339231238561
14005.126953125	-16.59028251055271	-0.1561185538978965	99.96339231238561
14014.22119140625	-16.59691770040008	-0.1566204092841566	99.96339231238561
14023.3154296875	-16.59201342964333	-0.1501897603849751	99.96339231238561
14032.40966796875	-16.58206064487227	-0.1312216557662536	99.96339231238561
14041.50390625	-16.61494810759403	-0.1403024064149645	99.96339231238561
14050.59814453125	-16.61004383683727	-0.151578796334875	99.96339231238561
14059.6923828125	-16.15466787274693	0.1098085585123419	99.96339231238561
14068.78662109375	-15.34784321163216	0.8090365465153853	99.96339231238561
14077.880859375	-14.91525768223497	1.354864151814952	99.96339231238561
14086.97509765625	-15.6343103211296	0.9353631082161581	99.96339231238561
14096.0693359375	-16.31153241533428	-0.01576479134684422	99.96339231238561
14105.16357421875	-16.3454295808589	-0.2668015835884822	99.96339231238561
14114.2578125	-16.46168964644547	-0.1994576892945889	99.96339231238561
14123.35205078125	-16.49017768981191	-0.3627663466386577	99.96339231238561
14132.4462890625	-16.5077753672332	-0.3077175188160427	99.96339231238561
14141.54052734375	-16.52155059832938	-0.3214805724748977	99.96339231238561
14150.634765625	-16.50662142117279	-0.3244176908424811	99.96339231238561
14159.72900390625	-16.49753409594704	-0.2614529237038898	99.96339231238561
14168.8232421875	-16.49356740636437	-0.284679145086182	99.96339231238561
14177.91748046875	-16.49176436564498	-0.2388338920366938	99.96339231238561
14187.01171875	-16.4645745115965	-0.2380927307467634	99.96339231238561
14196.10595703125	-16.45440536193912	-0.1927130111935859	99.96339231238561
14205.2001953125	-16.44986169932624	-0.189031933743117	99.96339231238561
14214.29443359375	-16.43962042804008	-0.1792059000018705	99.96339231238561
14223.388671875	-16.42591731857268	-0.1489784476759488	99.96339231238561
14232.48291015625	-16.40435295156872	-0.1423066818711195	99.96339231238561
14241.5771484375	-16.38848619323805	-0.1034981255765584	99.96339231238561
14250.67138671875	-16.36107997430324	-0.09710257772751055	99.96339231238561
14259.765625	-16.34593443226033	-0.06269317641575192	99.96339231238561
14268.85986328125	-16.32913009275557	-0.0593752997743334	99.96339231238561
14277.9541015625	-16.32321611919596	-0.04772297000536283	99.96339231238561
14287.04833984375	-16.32191792987799	-0.04766342343475664	99.96339231238561
14296.142578125	-16.31261423976591	-0.05097343145321524	99.96339231238561
14305.23681640625	-16.31427303722776	-0.04081846424305374	99.96339231238561
14314.3310546875	-16.32826463321026	-0.06347463208252932	99.96339231238561
14323.42529296875	-16.34196774267766	-0.07228764562229544	99.96339231238561
14332.51953125	-16.3570411630918	-0.09155313675240594	99.96339231238561
14341.61376953125	-16.38149039524679	-0.1064112330150124	99.96339231238561
14350.7080078125	-16.40637235717444	-0.1310014958478089	99.96339231238561
14359.80224609375	-16.43486040054088	-0.1508699659084468	99.96339231238561
14368.896484375	-16.45454960519667	-0.1656004855582626	99.96339231238561
14377.99072265625	-16.47553699917042	-0.1769982757454718	99.96339231238561
14387.0849609375	-16.50315958299155	-0.1872539473734299	99.96339231238561
14396.17919921875	-16.50395292090808	-0.1928278918756371	99.96339231238561
14405.2734375	-16.49537044708377	-0.1656474052819352	99.96339231238561
14414.36767578125	-16.49948137992399	-0.1553659448634411	99.96339231238561
14423.4619140625	-16.49775046083337	-0.1466004513170953	99.96339231238561
14432.55615234375	-16.4803691482984	-0.1227913177870454	99.96339231238561
14441.650390625	-16.47056060678489	-0.09863163578278753	99.96339231238561
14450.74462890625	-16.46262722761956	-0.08305059588282515	99.96339231238561
14459.8388671875	-16.46976726886836	-0.07714393656044877	99.96339231238561
14468.93310546875	-16.48282128367678	-0.08036725819415946	99.96339231238561
14478.02734375	-16.48585039208536	-0.08209868517385063	99.96339231238561
14487.12158203125	-16.48895162212272	-0.07132335358326356	99.96339231238561
14496.2158203125	-16.50965052958137	-0.07819446054812054	99.96339231238561
14505.31005859375	-16.51275175961873	-0.01769751383741295	99.96339231238561
14514.404296875	-16.4732291070496	0.08636425165183655	99.96339231238561
14523.49853515625	-16.43038885955678	0.1009090209960464	99.96339231238561
14532.5927734375	-16.44055800921417	0.1090663600587939	99.96339231238561
14541.68701171875	-16.46241086273323	0.08866584854992224	99.96339231238561
14550.78125	-16.49335104147804	0.04305401143278707	99.96339231238561
14559.87548828125	-16.50993901609648	0.03458483118620784	99.96339231238561
14568.9697265625	-16.51578086802731	0.01314377438456524	99.96339231238561
14578.06396484375	-16.52068513878407	0.0191403947375293	99.96339231238561
14587.158203125	-16.52811366654797	0.008236790466547145	99.96339231238561
14596.25244140625	-16.53150338310044	0.003261559719943842	99.96339231238561
14605.3466796875	-16.53453249150902	0.005965438303343354	99.96339231238561
14614.44091796875	-16.53453249150902	-0.001514479787813029	99.96339231238561
14623.53515625	-16.52962822075227	0.009787506378518983	99.96339231238561
14632.62939453125	-16.53907615412189	0.000349477626623428	99.96339231238561
14641.7236328125	-16.5733339277904	-0.01904858256215352	99.96339231238561
14650.81787109375	-16.67863150580305	-0.09635432762028336	99.96339231238561
14659.912109375	-16.20782151315469	0.1069539505976327	99.96339231238561
14669.00634765625	-15.38888041840558	0.8511724928448707	99.96339231238561
14678.1005859375	-14.83916936387651	1.46222965588649	99.96339231238561
14687.19482421875	-15.45746808737136	1.150959378054538	99.96339231238561
14696.2890625	-16.22159674425086	0.1877577186985089	99.96339231238561
14705.38330078125	-16.29371837302665	-0.1882659259959042	99.96339231238561
14714.4775390625	-16.39245288282071	-0.09782552624055843	99.96339231238561
14723.57177734375	-16.5164299626863	-0.3098795896054707	99.96339231238561
14732.666015625	-16.52962822075227	-0.3305909762498031	99.96339231238561
14741.76025390625	-16.54556710071172	-0.3014889136058481	99.96339231238561
14750.8544921875	-16.5530677501044	-0.3376219981424846	99.96339231238561
14759.94873046875	-16.54664892514336	-0.2857759068233075	99.96339231238561
14769.04296875	-16.53164762635799	-0.2933910051275991	99.96339231238561
14778.13720703125	-16.52162271995815	-0.2443899058424382	99.96339231238561
14787.2314453125	-16.51794451689059	-0.2479593948289667	99.96339231238561
14796.32568359375	-16.49580317685642	-0.2179921123534885	99.96339231238561
14805.419921875	-16.49580317685642	-0.1986218003826465	99.96339231238561
14814.51416015625	-16.49464923079601	-0.2031161635056821	99.96339231238561
14823.6083984375	-16.49176436564498	-0.1846453916911032	99.96339231238561
14832.70263671875	-16.48325401344943	-0.1837160363612293	99.96339231238561
14841.796875	-16.49363952799315	-0.1699533387565421	99.96339231238561
14850.89111328125	-16.49241346030396	-0.1824593367290028	99.96339231238561
14859.9853515625	-16.45390051053769	-0.1457742309511784	99.96339231238561
14869.07958984375	-16.44560652322847	-0.1200229961820061	99.96339231238561
14878.173828125	-16.45469384845422	-0.1277621107869141	99.96339231238561
14887.26806640625	-16.46435814671018	-0.1370563247861285	99.96339231238561
14896.3623046875	-16.4851291757976	-0.1495504316046886	99.96339231238561
14905.45654296875	-16.4914037575011	-0.1607074147714166	99.96339231238561
14914.55078125	-16.50150078552971	-0.1625392952314028	99.96339231238561
14923.64501953125	-16.5170069357165	-0.1695064743152951	99.96339231238561
14932.7392578125	-16.53813857294781	-0.1870500296125084	99.96339231238561
14941.83349609375	-16.56338114301934	-0.1984834261614137	99.96339231238561
14950.927734375	-16.60715897168624	-0.2294226917201645	99.96339231238561
14960.02197265625	-16.6421379616425	-0.2554205414716149	99.96339231238561
14969.1162109375	-16.66161080141196	-0.2665203974718609	99.96339231238561
14978.21044921875	-16.68526669565042	-0.2680712339653639	99.96339231238561
14987.3046875	-16.72478934821956	-0.2857209749571381	99.96339231238561
14996.39892578125	-16.75334951321477	-0.3024704541009435	99.96339231238561
15005.4931640625	-16.76157137889521	-0.2941341595351665	99.96339231238561
15014.58740234375	-16.74642583685229	-0.2675406477509962	99.96339231238561
15023.681640625	-16.7404397416639	-0.2336982814818605	99.96339231238561
15032.77587890625	-16.76380714938726	-0.2308619701750005	99.96339231238561
15041.8701171875	-16.76402351427359	-0.2276951888264621	99.96339231238561
15050.96435546875	-16.71808203674341	-0.1791585073697132	99.96339231238561
15060.05859375	-16.71505292833482	-0.1355274577876141	99.96339231238561
15069.15283203125	-16.79741582839678	-0.1787018611609667	99.96339231238561
15078.2470703125	-16.81263349206847	-0.2203916111398573	99.96339231238561
15087.34130859375	-16.84912703622902	-0.2070560744925699	99.96339231238561
15096.435546875	-16.87155686277829	-0.2248961953414867	99.96339231238561
15105.52978515625	-16.86412833501439	-0.2084322328529776	99.96339231238561
15114.6240234375	-16.84487186013125	-0.1618310693032218	99.96339231238561
15123.71826171875	-16.85468040164476	-0.1497238997008174	99.96339231238561
15132.8125	-16.91620015099051	-0.1681367238721943	99.96339231238561
15141.90673828125	-16.95803069568046	-0.2111580137337313	99.96339231238561
15151.0009765625	-16.99495696961367	-0.2155499650693372	99.96339231238561
15160.09521484375	-17.02842140536563	-0.22484139685637	99.96339231238561
15169.189453125	-17.06217432763271	-0.2344423490009583	99.96339231238561
15178.28369140625	-17.06376100346578	-0.2156731332690374	99.96339231238561
15187.3779296875	-17.059505827368	-0.1874222969015763	99.96339231238561
15196.47216796875	-17.07385803149439	-0.1615301695219497	99.96339231238561
15205.56640625	-17.05568338104289	-0.1434532134126433	99.96339231238561
15214.66064453125	-17.0613088680874	-0.1024991237728092	99.96339231238561
15223.7548828125	-17.0821520188036	-0.1038546076659514	99.96339231238561
15232.84912109375	-17.10083152065653	-0.1041106974893304	99.96339231238561
15241.943359375	-17.23216500665724	-0.1530959857130496	99.96339231238561
15251.03759765625	-17.24875298127568	-0.2204262093195097	99.96339231238561
15260.1318359375	-16.79994008540393	0.07961854856671091	99.96339231238561
15269.22607421875	-14.83044264679464	1.412666385325861	99.96339231238561
15278.3203125	-15.31546060031183	2.163075899787629	99.96339231238561
15287.41455078125	-16.46089630852894	0.616970971990807	99.96339231238561
15296.5087890625	-16.65713926042787	-0.06678843576407753	99.96339231238561
15305.60302734375	-16.76005682469092	0.1884546121007201	99.96339231238561
15314.697265625	-16.89153455394919	-0.2134155686573577	99.96339231238561
15323.79150390625	-16.95846342545312	-0.1058709025265251	99.96339231238561
15332.8857421875	-17.00851583582352	-0.2356104396873285	99.96339231238561
15341.97998046875	-17.03613841964464	-0.2244021284073604	99.96339231238561
15351.07421875	-17.03548932498566	-0.1812161619452194	99.96339231238561
15360.16845703125	-17.02445471578297	-0.2177017600047152	99.96339231238561
15369.2626953125	-17.01233828214863	-0.09761055580954207	99.96339231238561
15378.35693359375	-17.01053524142924	-0.1689890518801151	99.96339231238561
15387.451171875	-16.99589455078775	-0.05972270115477026	99.96339231238561
15396.54541015625	-16.98745632022099	-0.1005764199443332	99.96339231238561
15405.6396484375	-16.97382533238236	-0.03287102128898004	99.96339231238561
15414.73388671875	-16.95125126257554	-0.02450406210964389	99.96339231238561
15423.828125	-16.92629717901912	0.007951196777849117	99.96339231238561
15432.92236328125	-16.90862737996905	0.05395762758765566	99.96339231238561
15442.0166015625	-16.90091036569004	0.03443629422232097	99.96339231238561
15451.11083984375	-16.88634179667733	0.0883419401927828	99.96339231238561
15460.205078125	-16.86614774062011	0.0658197920725716	99.96339231238561
15469.29931640625	-16.84148214357879	0.1275026981018502	99.96339231238561
15478.3935546875	-16.84631429270677	0.1017122699741226	99.96339231238561
15487.48779296875	-16.82612023664954	0.1233177030480558	99.96339231238561
15496.58203125	-16.81811473585543	0.128257259959072	99.96339231238561
15505.67626953125	-16.83095238577752	0.1175349001906369	99.96339231238561
15514.7705078125	-16.81840322237053	0.1162717923675986	99.96339231238561
15523.86474609375	-16.83253906161059	0.1054043919182098	99.96339231238561
15532.958984375	-16.83852515679898	0.09962658239675983	99.96339231238561
15542.05322265625	-16.86210892940866	0.06610206339511451	99.96339231238561
15551.1474609375	-16.89225577023694	0.05378096794117213	99.96339231238561
15560.24169921875	-16.90833889345394	0.01271069114780656	99.96339231238561
15569.3359375	-16.91374801561213	0.02428050360765417	104.7235538510706
15578.43017578125	-16.92312382735298	0.008918549252169998	104.7235538510706
15587.5244140625	-16.93322085538159	0.00562132487779163	104.7235538510706
15596.61865234375	-16.94519304575837	-0.001000916353454855	104.7235538510706
15605.712890625	-16.90076612243249	0.01542738629411116	104.7235538510706
15614.80712890625	-16.90783404205251	0.05202780797463723	104.7235538510706
15623.9013671875	-16.92117654337604	0.01845729583640565	104.7235538510706
15632.99560546875	-16.906391609477	0.03115468374933847	104.7235538510706
15642.08984375	-16.89622245981961	0.0464354628288533	104.7235538510706
15651.18408203125	-16.89009212137367	0.04961856823137553	104.7235538510706
15660.2783203125	-16.89333759466858	0.05052203078025189	104.7235538510706
15669.37255859375	-16.88994787811612	0.04620384380238801	104.7235538510706
15678.466796875	-16.88785635088162	0.05019014903228945	104.7235538510706
15687.56103515625	-16.86535440270357	0.1501760620420789	104.7235538510706
15696.6552734375	-16.84357367081329	0.2744714664213011	104.7235538510706
15705.74951171875	-16.8086668024858	0.2432931594434807	104.7235538510706
15714.84375	-16.81393168138644	0.2446162952842539	104.7235538510706
15723.93798828125	-16.84559307641901	0.2191330196507578	104.7235538510706
15733.0322265625	-16.87444172792932	0.1452412282099991	104.7235538510706
15742.12646484375	-16.89167879720674	0.1417453351624052	104.7235538510706
15751.220703125	-16.91446923189989	0.09217151601572977	104.7235538510706
15760.31494140625	-16.92110442174726	0.08175608750567176	104.7235538510706
15769.4091796875	-16.92773961159463	0.06737004363049141	104.7235538510706
15778.50341796875	-16.93545662587364	0.04965478009898178	104.7235538510706
15787.59765625	-16.94180332920591	0.04367576280678018	104.7235538510706
15796.69189453125	-16.95990585802863	0.01567460554560963	104.7235538510706
15805.7861328125	-16.96509861530049	0.008528816357416685	104.7235538510706
15814.88037109375	-16.99293756400795	-0.01996292613423937	104.7235538510706
15823.974609375	-17.12369407697846	-0.1006351661057045	104.7235538510706
15833.06884765625	-17.16891433822088	-0.2032236119134877	104.7235538510706
15842.1630859375	-16.72659238893895	0.05206051396240979	104.7235538510706
15851.25732421875	-15.57048267966303	0.9386163218227069	104.7235538510706
15860.3515625	-14.61537594978523	1.96377251899538	104.7235538510706
15869.44580078125	-14.94836150984305	1.945514375175661	104.7235538510706
15878.5400390625	-16.6326179066441	0.4772236378556319	104.7235538510706
15887.63427734375	-16.7791690563165	-0.5528780035682501	104.7235538510706
15896.728515625	-16.8953570002743	-0.2937936001764014	104.7235538510706
15905.82275390625	-16.96098768246027	-0.449131840331276	104.7235538510706
15914.9169921875	-16.98572540113037	-0.5553064959242704	104.7235538510706
15924.01123046875	-16.99971699711287	-0.3980746954053338	104.7235538510706
15933.10546875	-17.00714552487678	-0.5547139624030386	104.7235538510706
15942.19970703125	-17.00988614677026	-0.4114380939801294	104.7235538510706
15951.2939453125	-16.9981303212798	-0.4737680513567487	104.7235538510706
15960.38818359375	-16.98377811715342	-0.4118763621353838	104.7235538510706
15969.482421875	-16.96769499393642	-0.3725018558356694	104.7235538510706
15978.57666015625	-16.96401679086885	-0.3988398766556643	104.7235538510706
