Time Stamp	ECG LL-RA	ECG LL-RA Filtered	Heart Rate
346854.7058105469	7.71247061639674	0.06450830158783327	-1
346863.8000488281	8.160850782495832	0.3030872294567536	-1
346872.8942871094	8.838217119958058	0.9235905915664934	-1
346881.9885253906	8.398563670940838	0.9295485396261112	-1
346891.0827636719	7.915637244658142	0.1620993507668148	-1
346900.1770019531	7.641286568795034	-0.1347142505501483	-1
346909.2712402344	7.425354412240316	-0.2952068405594254	-1
346918.3654785156	7.425354412240316	-0.4292240853700692	-1
346927.4597167969	7.248007327080647	-0.3782445892947693	-1
346936.5539550781	7.169466873343811	-0.5655420900639037	-1
346945.6481933594	7.129799977517126	-0.5113047103201098	-1
346954.7424316406	7.083497891843068	-0.5006143262953724	-1
346963.8366699219	7.060274727377264	-0.5194597759047829	-1
346972.9309082031	7.055154091734182	-0.4291426270266726	-1
346982.0251464844	7.05363953752989	-0.4314608156966673	-1
346991.1193847656	6.987215517427387	-0.3784107603298981	-1
347000.2136230469	6.895116197480703	-0.453474098511667	-1
347009.3078613281	6.891365872784362	-0.4246346536235396	-1
347018.4020996094	6.875066384681033	-0.3673505637754887	-1
347027.4963378906	6.846794706200923	-0.3534306243450437	-1
347036.5905761719	6.810301162040373	-0.3236696400892822	-1
347045.6848144531	6.72757765383454	-0.3464073824937464	-1
347054.7790527344	6.594873856887086	-0.3943164874465777	-1
347063.8732910156	6.492965995426893	-0.4655029910714959	-1
347072.9675292969	6.528882566557237	-0.401355321816067	-1
347082.0617675781	6.519434633187609	-0.3105754130064995	-1
347091.1560058594	6.479551372474596	-0.2881319403899953	-1
347100.2502441406	6.467651303726591	-0.2596508943447137	-1
347109.3444824219	6.456472451266343	-0.1983050238637238	-1
347118.4387207031	6.441687517367306	-0.1628839770681219	-1
347127.5329589844	6.41882496104538	-0.1265258458069337	-1
347136.6271972656	6.417094041954761	-0.0833737917079501	-1
347145.7214355469	6.428272894415009	-0.02924550475205616	-1
347154.8156738281	6.431590489338695	0.0330965297637893	-1
347163.9099121094	6.445365720434872	0.07376310870466046	-1
347173.0041503906	6.465054925090662	0.1408923796948845	-1
347182.0983886719	6.474647101717842	0.1844642834561765	-1
347191.1926269531	6.434908084262381	0.2000933148190449	-1
347200.2868652344	6.320234694508875	0.143956877238564	-1
347209.3811035156	6.30761340947311	0.1105699973139536	-1
347218.4753417969	6.32441774897787	0.1814731415196077	-1
347227.5695800781	6.244723349180621	0.176937007414346	-1
347236.6638183594	6.18305935657732	0.1229181324179017	-1
347245.7580566406	6.273067149289507	0.1978010806646096	-1
347254.8522949219	6.293838178376935	0.3079413209237106	-1
347263.9465332031	6.281721744742602	0.3111722001838558	-1
347273.0407714844	6.322614708258476	0.3500595222859223	-1
347282.1350097656	6.327879587159108	0.4100915577157313	-1
347291.2292480469	6.347136062042244	0.4190306987897111	-1
347300.3234863281	6.281216893341171	0.4181960721357705	-1
347309.4177246094	6.28157750148505	0.3852813853487989	-1
347318.5119628906	6.326942005985023	0.4395282366159264	-1
347327.6062011719	6.353771251889617	0.07210306326915283	-1
347336.7004394531	6.423368623658255	-0.3924714178378382	-1
347345.7946777344	6.50263029368285	-0.08796542363803052	-1
347354.8889160156	6.518713416899851	-0.07092331373747436	-1
347363.9831542969	6.525132241860896	-0.1558476889017958	-1
347373.0773925781	6.56191427253655	-0.01683870130310795	-1
347382.1716308594	6.588166545410937	-0.102527992933326	-1
347391.2658691406	6.549148744243234	-0.03568493094720397	-1
347400.3601074219	6.6076393851804	-0.09603867875849181	-1
347409.4543457031	6.615789129232065	-0.03145584322319815	-1
347418.5485839844	6.625381305859246	-0.03845294197595995	-1
347427.6428222656	6.609442425899795	-0.0908290395313222	-1
347436.7370605469	6.632737711994376	-0.04201578531168088	-1
347445.8312988281	6.649181443355256	-0.09071605881895406	-1
347454.9255371094	6.639877753243179	-0.04263745417353978	-1
347464.0197753906	6.582901666510304	-0.1449057750837231	-1
347473.1140136719	6.607999993324279	-0.1359624739145693	-1
347482.2082519531	6.59617204620505	-0.13692701948398	-1
347491.3024902344	6.525348606747223	-0.1982195216223616	-1
347500.3967285156	6.480777440163784	-0.2554362839056812	-1
347509.4909667969	6.431734732596246	-0.3051423220497503	-1
347518.5852050781	6.403967905517567	-0.3165592875197558	-1
347527.6794433594	6.35817067124494	-0.366324680527955	-1
347536.7736816406	6.329610506249727	-0.3666551982114139	-1
347545.8679199219	6.358531279388819	-0.3712413768031262	-1
347554.9621582031	6.390625404194046	-0.2970349013183558	-1
347564.0563964844	6.45755427569798	-0.2561192259949303	-1
347573.1506347656	6.460150654333908	-0.2085588936140407	-1
347582.2448730469	6.461016113879218	-0.2156653261561496	-1
347591.3391113281	6.506669104894294	-0.1973297846393015	-1
347600.4333496094	6.580088922988049	-0.1093799075736227	-1
347609.5275878906	6.55109602822018	-0.1190311839703484	-1
347618.6218261719	6.492605387283014	-0.1685246738400762	-1
347627.7160644531	6.459645802932478	-0.2286625669888104	-1
347636.8103027344	6.453731829372863	-0.2207805039932307	-1
347645.9045410156	6.400073337563675	-0.2554846730049474	-1
347654.9987792969	6.38045625453666	-0.2872487297459721	-1
347664.0930175781	6.408872176274321	-0.2603135519044392	-1
347673.1872558594	6.406420040895944	-0.2359703321706134	-1
347682.2814941406	6.38233141688483	-0.247661089811808	-1
347691.3757324219	6.282298717772808	-0.3097980797157824	-1
347700.4699707031	6.18493451892549	-0.3952115280360541	-1
347709.5642089844	5.98328244486838	-0.5263396080058944	-1
347718.6584472656	5.956164712448683	-0.6020568526372244	-1
347727.7526855469	6.355141562836357	-0.330257569202522	-1
347736.8469238281	6.962766285272394	0.2738823840131478	-1
347745.9411621094	6.696421110203399	0.3657261007866082	-1
347755.0354003906	6.620693399988818	0.001192112609246414	-1
347764.1296386719	6.614130331770221	0.0442008599879458	-1
347773.2238769531	6.531623188450717	0.01422919692394184	-1
347782.3181152344	6.473781642172533	-0.1380446235475163	-1
347791.4123535156	6.400794553851433	-0.1189251433437128	-1
347800.5065917969	6.298165476103482	-0.2604557070919395	-1
347809.6008300781	6.3636519150319	-0.2272847090597318	-1
347818.6950683594	6.463973100659025	-0.1052287796478307	-1
347827.7893066406	6.57612223340538	-0.009897379764403084	-1
347836.8835449219	6.604682398400593	0.06730903637498187	-1
347845.9777832031	6.597614478780566	0.03174300329335267	-1
347855.0720214844	6.590907167304417	0.03462808097676755	-1
347864.1662597656	6.581387112306013	0.007057647143182771	-1
347873.2604980469	6.508904875386343	-0.03049723819479116	-1
347882.3547363281	6.505803645348984	-0.08310025009589911	-1
347891.4489746094	6.53140682356439	-0.04765108369696924	-1
347900.5432128906	6.520083727846591	-0.03674128100476778	-1
347909.6374511719	6.528161350269479	-0.05633867165004016	-1
347918.7316894531	6.514890970574734	-0.0368544110635186	-1
347927.8259277344	6.488133846298915	-0.07488510081017562	-1
347936.9201660156	6.41832010964395	-0.1104233049484172	-1
347946.0144042969	6.394015120746508	-0.1583294942202158	-1
347955.1086425781	6.384422944119328	-0.1484437202977071	-1
347964.2028808594	6.375768348666234	-0.1418424332712364	-1
347973.2971191406	6.405410338093083	-0.1243170925240156	-1
347982.3913574219	6.439091138731378	-0.0647470490992547	-1
347991.4855957031	6.441399030852203	-0.05135121598213249	-1
348000.5798339844	6.486691413723399	-0.01900739164533642	-1
348009.6740722656	6.513376416370442	0.02697317680235101	-1
348018.7683105469	6.554053014999988	0.0574339033115138	-1
348027.8625488281	6.604033303741611	0.1023442505308214	-1
348036.9567871094	6.609081817755916	0.127100395717262	-1
348046.0510253906	6.59941751949996	0.1046288772382394	-1
348055.1452636719	6.576482841549259	0.08657731769465782	-1
348064.2395019531	6.558091826211432	0.06253074794707399	-1
348073.3337402344	6.60028297904527	0.07505225899157109	-1
348082.4279785156	6.626246765404555	0.1216389949280383	-1
348091.5222167969	6.651128727332202	0.1292052430915749	-1
348100.6164550781	6.648676591953826	0.1362974411542406	-1
348109.7106933594	6.58932049147135	0.0925673304773314	-1
348118.8049316406	6.508472145613689	0.008268071289877089	-1
348127.8991699219	6.39141874211058	-0.08087449961534481	-1
348136.9934082031	6.323335924546234	-0.1650808938483733	-1
348146.0876464844	6.313383139775175	-0.1662020719632516	-1
348155.1818847656	6.348073643216329	-0.1221641637880671	-1
348164.2761230469	6.397621202185298	-0.0604862527670467	-1
348173.3703613281	6.440533571306894	0.00255323466664807	-1
348182.4645996094	6.435124449148709	0.02142489089216571	-1
348191.5588378906	6.382692025028709	-0.005864699223670222	-1
348200.6530761719	6.344106953633661	-0.04671305377005942	-1
348209.7473144531	6.323552289432561	-0.05175074247126937	-1
348218.8415527344	6.327518979015229	-0.04053852626340954	-1
348227.9357910156	6.330908695567691	-0.01853610618148448	-1
348237.0300292969	6.329322019734624	-0.001645716093968504	-1
348246.1242675781	6.250132471338805	-0.03466600728298333	-1
348255.2185058594	6.121611728860346	-0.1302990979667886	-1
348264.3127441406	6.040763383002685	-0.2113451750191069	-1
348273.4069824219	6.035570625730828	-0.1976003042765202	-1
348282.5012207031	6.114255322725215	-0.116067991274384	-1
348291.5954589844	6.212557102746619	0.01261182921575231	-1
348300.6896972656	6.290232096938145	0.1153412718488532	-1
348309.7839355469	6.325860181553386	0.1715587958456558	-1
348318.8781738281	6.304223692920648	0.1799278508722216	-1
348327.9724121094	6.293766056748159	0.1580458677365901	-1
348337.0666503906	6.29665092189919	0.1730482743959315	-1
348346.1608886719	6.337399642157513	0.2025562862334897	-1
348355.2551269531	6.321244397311736	0.2227309161972522	-1
348364.3493652344	6.319513478221117	0.2073177247649422	-1
348373.4436035156	6.328889289961969	0.2179065071877326	-1
348382.5378417969	6.323335924546234	0.2312418328294783	-1
348391.6320800781	6.309777058336384	0.2109526100262147	-1
348400.7263183594	6.279197487735449	0.201280576572147	-1
348409.8205566406	6.206354642671901	0.1449802600661701	-1
348418.9147949219	6.191064857371433	0.1107483904506186	-1
348428.0090332031	6.199070358165546	0.1344736356401043	-1
348437.1032714844	6.210032845739466	0.1547143908579031	-1
348446.1975097656	6.235347537439768	0.1810671988648357	-1
348455.2917480469	6.286698137128131	0.2304647642843308	-1
348464.3859863281	6.304223692920648	0.2683550057180071	-1
348473.4802246094	6.374398037719493	0.3043740479291588	-1
348482.5744628906	6.418897082674156	0.3672740441895561	-1
348491.6687011719	6.43699961149688	0.3794980796993609	-1
348500.7629394531	6.459501559674926	0.3803201576833117	-1
348509.8571777344	6.457482154069204	0.3859434806960372	-1
348518.9514160156	6.383845971089122	0.3206687678676551	-1
348528.0456542969	6.27148047345644	0.212597257492566	-1
348537.1398925781	6.149667042454129	0.09392540400462524	-1
348546.2341308594	6.488133846298915	0.2322383896753422	-1
348555.3283691406	7.040729765979024	0.7592493713984637	-1
348564.4226074219	7.028180602572037	0.9608005422016103	-1
348573.5168457031	6.723394599365545	0.5916474607835531	-1
348582.6110839844	6.577564665980896	0.3397769204711556	-1
348591.7053222656	6.507534564439603	0.2681916271095381	-1
348600.7995605469	6.455751234978585	0.1857028894879074	-1
348609.8937988281	6.450269991191625	0.1655063468689005	-1
348618.9880371094	6.466280992779851	0.1674146551740645	-1
348628.0822753906	6.480705318535009	0.1802965155972825	-1
348637.1765136719	6.486475048837072	0.1776982952837377	-1
348646.2707519531	6.506164253492863	0.1815136741912278	-1
348655.3649902344	6.504361212773469	0.1832173318013277	-1
348664.4592285156	6.491090833078722	0.1586454396401744	-1
348673.5534667969	6.482291994368076	0.1400809876898701	-1
348682.6477050781	6.435917787065242	0.1047142690682135	-1
348691.7419433594	6.42517166437765	0.06667547322782157	-1
348700.8361816406	6.410891581880043	0.06043475579784413	-1
348709.9304199219	6.36776284787212	0.02914956896340687	-1
348719.0246582031	6.333216587688517	-0.01762948832488883	-1
348728.1188964844	6.308839477162299	-0.03163341011865754	-1
348737.2131347656	6.296506678641639	-0.04660681921632042	-1
348746.3073730469	6.279341730993001	-0.05021991910913425	-1
348755.4016113281	6.276168379326866	-0.05347213359793716	-1
348764.4958496094	6.279125366106674	-0.04433655435828882	-1
348773.5900878906	6.271264108570112	-0.03632987658068074	-1
348782.6843261719	6.256262809784748	-0.0479273028726407	-1
348791.7785644531	6.291241799741006	-0.02425618038641962	-1
348800.8728027344	6.318648018675807	0.01786676042512609	-1
348809.9670410156	6.375335618893579	0.06039528053020263	-1
348819.0612792969	6.398126053586728	0.0989399302032441	-1
348828.1555175781	6.417526771727416	0.110073851043738	-1
348837.2497558594	6.4297874486193	0.1154590642258943	-1
348846.3439941406	6.432095340740125	0.1194328283533882	-1
348855.4382324219	6.431229881194816	0.105414987228488	-1
348864.5324707031	6.438586287329947	0.1058415489506598	-1
348873.6267089844	6.446375423237733	0.105815468888047	-1
348882.7209472656	6.481498656451542	0.1191496375720793	-1
348891.8151855469	6.511212767507169	0.1477066637065436	-1
348900.9094238281	6.533786837313991	0.1551508952451979	-1
348910.0036621094	6.571650692421281	0.1720187545049113	-1
348919.0979003906	6.611894561278172	0.1966639611006828	-1
348928.1921386719	6.625958278889452	0.2024664845435244	-1
348937.2863769531	6.603095722567526	0.1706912288068573	-1
348946.3806152344	6.529748026102547	0.09850041872703558	-1
348955.4748535156	6.517559470839438	0.03971961162253337	-1
348964.5690917969	6.511429132393496	0.0368829527167067	-1
348973.6633300781	6.49267750891179	0.01466371165831341	-1
348982.7575683594	6.457121545925325	-0.02729143513600322	-1
348991.8518066406	6.429354718846645	-0.05685963080479329	-1
349000.9460449219	6.413632203773523	-0.08345959755711375	-1
349010.0402832031	6.427768043013578	-0.07516604494802223	-1
349019.1345214844	6.433970503088296	-0.06511375098411015	-1
349028.2287597656	6.422358920855394	-0.07110809039948218	-1
349037.3229980469	6.41420917680373	-0.08522055482971352	-1
349046.4172363281	6.42156558293886	-0.08262435324728379	-1
349055.5114746094	6.458059127099411	-0.05650845045235617	-1
349064.6057128906	6.494408428002409	-0.02102988274025164	-1
349073.6999511719	6.510996402620841	-0.0009101985339179499	-1
349082.7941894531	6.50450545603102	-0.01139625455935236	-1
349091.8884277344	6.489432035616879	-0.02869242178997004	-1
349100.9826660156	6.466064627893523	-0.05615869531062213	-1
349110.0769042969	6.447024517896715	-0.07902053710720448	-1
349119.1711425781	6.436783246610552	-0.0939274848487386	-1
349128.2653808594	6.429354718846645	-0.1007630788169076	-1
349137.3596191406	6.441543274109755	-0.09688800584552693	-1
349146.4538574219	6.440028719905463	-0.08958416436671837	-1
349155.5480957031	6.438514165701172	-0.09379632821717893	-1
349164.6423339844	6.434403232860951	-0.09845283412432285	-1
349173.7365722656	6.40649216252472	-0.1118525965277065	-1
349182.8308105469	6.366825266698035	-0.1518516462804974	-1
349191.9250488281	6.346270602496935	-0.172605189031474	-1
349201.0192871094	6.348650616246536	-0.1705610621907172	-1
349210.1135253906	6.337543885415064	-0.164842903942813	-1
349219.2077636719	6.314537085835587	-0.1784974429603089	-1
349228.3020019531	6.29665092189919	-0.1920363509431408	-1
349237.3962402344	6.276745352357072	-0.1963878848766354	-1
349246.4904785156	6.25229612020208	-0.2107328137683238	-1
349255.5847167969	6.222221401002575	-0.22327575845092	-1
349264.6789550781	6.164524097981942	-0.2551399093799113	-1
349273.7731933594	6.044225221183923	-0.3309275604029444	-1
349282.8674316406	6.248473673876962	-0.2604351385961684	-1
349291.9616699219	7.05089891563641	0.3404885966968504	-1
349301.0559082031	7.32027319911399	0.8996202868439541	-1
349310.1501464844	6.877807006574513	0.5522885103237274	-1
349319.2443847656	6.609658790786122	0.06132401523776884	-1
349328.3386230469	6.469237979559658	-0.04046052159891567	-1
349337.4328613281	6.408078838357787	-0.1573858210120647	-1
349346.5270996094	6.423368623658255	-0.1545764281732748	-1
349355.6213378906	6.499529063645491	-0.08268627410058965	-1
349364.7155761719	6.537320797124004	-0.04045809080622735	-1
349373.8098144531	6.556144542234486	-0.01131304045484035	-1
349382.9040527344	6.565087624202684	-0.02461542039205613	-1
349391.9982910156	6.54922086587201	-0.02108585143675654	-1
349401.0925292969	6.516117038263922	-0.06935374881909368	-1
349410.1867675781	6.472483452854569	-0.1046441512579539	-1
349419.2810058594	6.456616694523895	-0.1350038009499357	-1
349428.3752441406	6.474430736831515	-0.1268217796198201	-1
349437.4694824219	6.497581779668543	-0.09361273146005625	-1
349446.5637207031	6.500755131334679	-0.09230706421240389	-1
349455.6579589844	6.490946589821171	-0.09154699272108019	-1
349464.7521972656	6.471834358195586	-0.1158602573368931	-1
349473.8464355469	6.444356017632011	-0.1317194710449195	-1
349482.9406738281	6.401732135025518	-0.1687819072492414	-1
349492.0349121094	6.396106647981006	-0.1838241245781873	-1
349501.1291503906	6.400794553851433	-0.1675006045275802	-1
349510.2233886719	6.387163566012808	-0.1669428910851324	-1
349519.3176269531	6.362209482456384	-0.1812181023781718	-1
349528.4118652344	6.349371832534294	-0.191638806544234	-1
349537.5061035156	6.368267699273551	-0.1715249525226824	-1
349546.6003417969	6.403535175744913	-0.1320502983779873	-1
349555.6945800781	6.498447239213853	-0.05606516569577697	-1
349564.7888183594	6.551240271477732	0.02209157349725516	-1
349573.8830566406	6.608288479839382	0.06031499477324597	-1
349582.9772949219	6.640454726273386	0.09253856283967341	-1
349592.0715332031	6.647450524264637	0.09889694255906312	-1
349601.1657714844	6.665697296344912	0.08780699109033668	-1
349610.2600097656	6.676876148805159	0.09975404297150985	-1
349619.3542480469	6.673486432252697	0.08194100496381365	-1
349628.4484863281	6.680193743728846	0.07022874440109964	-1
349637.5427246094	6.697502934635036	0.07479209468095577	-1
349646.6369628906	6.707383597777319	0.07238663702385365	-1
349655.7312011719	6.706662381489561	0.06501685100786583	-1
349664.8254394531	6.695050799256659	0.04016869550003807	-1
349673.9196777344	6.685602865887031	0.02119593078616487	-1
349683.0139160156	6.650335389415669	-0.01348060572984523	-1
349692.1081542969	6.618457629496769	-0.05585017126248405	-1
349701.2023925781	6.600138735787718	-0.08225835557606764	-1
349710.2966308594	6.589464734728901	-0.09349693895685196	-1
349719.3908691406	6.604466033514266	-0.09102030969261475	-1
349728.4851074219	6.62855465752538	-0.06701736756883107	-1
349737.5793457031	6.651200848960978	-0.04582537963287993	-1
349746.6735839844	6.672332486192285	-0.03146478463577344	-1
349755.7678222656	6.631078914532533	-0.04659901018740981	-1
349764.8620605469	6.59480173525831	-0.102381790780212	-1
349773.9562988281	6.560255475074706	-0.1287450721270185	-1
349783.0505371094	6.534940783374403	-0.153091730244046	-1
349792.1447753906	6.52181464693721	-0.1668685784637903	-1
349801.2390136719	6.527151647466618	-0.1553672366258126	-1
349810.3332519531	6.510707916105738	-0.1567856400836848	-1
349819.4274902344	6.510924280992065	-0.1571806653113487	-1
349828.5217285156	6.50537091557633	-0.1505062282446296	-1
349837.6159667969	6.48856657607157	-0.1526318693983023	-1
349846.7102050781	6.493903576600978	-0.1532119330080363	-1
349855.8044433594	6.509193361901446	-0.1253482213731169	-1
349864.8986816406	6.527512255610497	-0.1022605095741803	-1
349873.9929199219	6.529459539587443	-0.08763191343028091	-1
349883.0871582031	6.507895172583482	-0.09376573899151369	-1
349892.1813964844	6.494336306373633	-0.1107623083802699	-1
349901.2756347656	6.483518062057264	-0.107576142872852	-1
349910.3698730469	6.469959195847416	-0.1141153738438014	-1
349919.4641113281	6.459285194788599	-0.1153446285195644	-1
349928.5583496094	6.449548774903867	-0.1144377882646942	-1
349937.6525878906	6.443274193200374	-0.1121152042034089	-1
349946.7468261719	6.437288098011983	-0.1054554503807669	-1
349955.8410644531	6.365671320637622	-0.1366355829781804	-1
349964.9353027344	6.278692636334019	-0.2112976916463729	-1
349974.0295410156	6.124568715640153	-0.3103676451568331	-1
349983.1237792969	5.989773391458201	-0.4272928159759054	-1
349992.2180175781	6.159691948853964	-0.3509140459229948	-1
350001.3122558594	6.913290847932202	0.2246696112810447	-1
350010.4064941406	7.329360524339739	0.849361988672841	-1
350019.5007324219	6.693392001794816	0.5286794732233207	-1
350028.5949707031	6.562202759051653	-0.04640002700045729	-1
350037.6892089844	6.46938222281721	0.04001564477764311	-1
350046.7834472656	6.432239583997677	-0.04993488709827113	-1
350055.8776855469	6.406924892297375	-0.1043199778486794	-1
350064.9719238281	6.387740539043015	-0.03528653222940539	-1
350074.0661621094	6.384783552263207	-0.118974612084448	-1
350083.1604003906	6.381610200597073	-0.03245765343355942	-1
350092.2546386719	6.355790657495339	-0.08875058739413573	-1
350101.3488769531	6.360983414767196	-0.06306036114034236	-1
350110.4431152344	6.376633808211543	-0.03381893747589439	-1
350119.5373535156	6.381249592453194	-0.03020333268208994	-1
350128.6315917969	6.350309413708379	-0.0100348477136242	-1
350137.7258300781	6.317710437501722	-0.06921837882946277	-1
350146.8200683594	6.295208489323675	-0.04687256115150013	-1
350155.9143066406	6.258570701905573	-0.08838269702892176	-1
350165.0085449219	6.246310025013688	-0.07676344587673799	-1
350174.1027832031	6.232534793917512	-0.07865087671123389	-1
350183.1970214844	6.217172886988269	-0.07247578960724901	-1
350192.2912597656	6.213134075776825	-0.06191526311733375	-1
350201.3854980469	6.213061954148049	-0.05049711753600165	-1
350210.4797363281	6.215369846268875	-0.02163723929953498	-1
350219.5739746094	6.227125671759328	-0.01204593858802392	-1
350228.6682128906	6.268956216449287	0.04578373455728693	-1
350237.7624511719	6.315835275153551	0.09157670608244202	-1
350246.8566894531	6.341654818255284	0.1418652285929694	-1
350255.9509277344	6.353771251889617	0.1501447504930851	-1
350265.0451660156	6.36502222597864	0.1662495157295297	-1
350274.1394042969	6.379158065218696	0.1789051475208338	-1
350283.2336425781	6.395241188435697	0.1903532686095762	-1
350292.3278808594	6.400938797108984	0.2034226779393085	-1
350301.4221191406	6.426614096953165	0.2074593670173472	-1
350310.5163574219	6.44385116623058	0.2346025381018025	-1
350319.6105957031	6.462891276227389	0.2366254293360498	-1
350328.7048339844	6.486691413723399	0.2542774032583167	-1
350337.7990722656	6.498086631069974	0.2606948374562935	-1
350346.8933105469	6.523329201141501	0.2644870084581977	-1
350355.9875488281	6.529531661216219	0.2723295007384244	-1
350365.0817871094	6.51770371409699	0.2489038323806717	-1
350374.1760253906	6.504216969515917	0.2235682402838098	-1
350383.2702636719	6.476305899179685	0.1930336750825992	-1
350392.3645019531	6.461448843651873	0.1614953041349267	-1
350401.4587402344	6.451640302138365	0.1467991327427978	-1
350410.5529785156	6.432239583997677	0.1277284380950599	-1
350419.6472167969	6.421709826196412	0.1054158213444903	-1
350428.7414550781	6.437215976383207	0.1107716073421786	-1
350437.8356933594	6.442697220170167	0.1197664613402885	-1
350446.9299316406	6.44882755861611	0.117793474990208	-1
350456.0241699219	6.477171358724995	0.1311448987663935	-1
350465.1184082031	6.493687211714651	0.1509277563502353	-1
350474.2126464844	6.489071427473	0.1426003752192117	-1
350483.3068847656	6.471401628422932	0.1197585112638478	-1
350492.4011230469	6.418536474530277	0.07729377625059324	-1
350501.4953613281	6.400794553851433	0.03370156143841743	-1
350510.5895996094	6.398991513132038	0.03530435438210672	-1
350519.6838378906	6.396755742639988	0.03389757480244418	-1
350528.7780761719	6.384783552263207	0.02299509035778899	-1
350537.8723144531	6.390336917678943	0.02307324870422368	-1
350546.9665527344	6.386153863209947	0.02403381958636663	-1
350556.0607910156	6.386802957868929	0.02287370555955697	-1
350565.1550292969	6.405266094835532	0.03165557250051324	-1
350574.2492675781	6.418680717787828	0.05218095683603004	-1
350583.3435058594	6.413560082144747	0.04815574980491708	-1
350592.4377441406	6.404617000176549	0.03659501329926823	-1
350601.5319824219	6.423584988544582	0.04203269250111229	-1
350610.6262207031	6.446086936722629	0.06415782620015711	-1
350619.7204589844	6.456905181038998	0.07591596146893376	-1
350628.8146972656	6.473709520543757	0.07898059622807754	-1
350637.9089355469	6.476594385694789	0.08651937051650488	-1
350647.0031738281	6.463468249257595	0.06793584511598086	-1
350656.0974121094	6.447385126040594	0.04661748470141875	-1
350665.1916503906	6.423440745287031	0.0414250774914524	-1
350674.2858886719	6.377499267756853	0.02424758853471338	-1
350683.3801269531	6.307829774359438	-0.04009364629981693	-1
350692.4743652344	6.030305746830195	-0.2141067263285173	-1
350701.5686035156	6.182121775403235	-0.26415780228905	-1
350710.6628417969	6.816792108630194	0.2550378220374204	-1
350719.7570800781	7.213533188525819	0.8083487176708115	-1
350728.8513183594	6.928580633232669	0.6619661124062434	-1
350737.9455566406	6.671539148275751	0.2601829460488921	-1
350747.0397949219	6.539484445987278	0.09498475034927506	-1
350756.1340332031	6.436783246610552	0.003863098666730604	-1
350765.2282714844	6.391490863739356	-0.08484785732532851	-1
350774.3225097656	6.410242487221061	-0.05787487013744883	-1
350783.4167480469	6.408944297903097	-0.04693365492844671	-1
350792.5109863281	6.411829163054128	-0.04653955928983627	-1
350801.6052246094	6.425892880665407	-0.02653906321696833	-1
350810.6994628906	6.440894179450773	-0.01420646658793542	-1
350819.7937011719	6.455606991721034	0.009857626818151959	-1
350828.8879394531	6.437792949413414	-0.001032263274184929	-1
350837.9821777344	6.421637704567636	-0.01449257519340205	-1
350847.0764160156	6.415291001235366	-0.02632622119704761	-1
350856.1706542969	6.416372825667003	-0.01780655856541587	-1
350865.2648925781	6.416589190553331	-0.01692897031501182	-1
350874.3591308594	6.409665514190855	-0.01631880730100034	-1
350883.4533691406	6.399279999647141	-0.02192353712475256	-1
350892.5476074219	6.391635106996907	-0.02954318896238221	-1
350901.6418457031	6.354853076321254	-0.04275614948042828	-1
350910.7360839844	6.3362456960971	-0.07324205010449164	-1
350919.8303222656	6.315763153524776	-0.07352608967291921	-1
350928.9245605469	6.302276408943702	-0.0846243275408992	-1
350938.0187988281	6.302709138716357	-0.07805323792107327	-1
350947.1130371094	6.326869884356247	-0.05047525262343474	-1
350956.2072753906	6.361560387797402	-0.01261753227665788	-1
350965.3015136719	6.425388029263977	0.0457385676669257	-1
350974.3957519531	6.44522147717732	0.08614819764071371	-1
350983.4899902344	6.471113141907829	0.09869063126911451	-1
350992.5842285156	6.509553970045325	0.1264122790968686	-1
351001.6784667969	6.520372214361694	0.1490177038502892	-1
351010.7727050781	6.51496309220351	0.1300069146791512	-1
351019.8669433594	6.515756430120043	0.1235540463311791	-1
351028.9611816406	6.494696914517512	0.1053491734158354	-1
351038.0554199219	6.48719626512483	0.08074482471667756	-1
351047.1496582031	6.493398725199548	0.08171095425647285	-1
351056.2438964844	6.51820856549842	0.0930887950244812	-1
351065.3381347656	6.532344404738475	0.1085728396356733	-1
351074.4323730469	6.544749324887911	0.1101525089239718	-1
351083.5266113281	6.546408122349754	0.1082492926647071	-1
351092.6208496094	6.539845054131157	0.09585943633769957	-1
351101.7150878906	6.559678502044499	0.09330214483404585	-1
351110.8093261719	6.579367706700291	0.1115657160826852	-1
351119.9035644531	6.586363504691542	0.1109780765803066	-1
351128.9978027344	6.577708909238448	0.09668556001205472	-1
351138.0920410156	6.573093124996797	0.08003337866824045	-1
351147.1862792969	6.567034908179631	0.06634114413170736	-1
351156.2805175781	6.568621584012698	0.05801344548247766	-1
351165.3747558594	6.553548163598557	0.04311920348517145	-1
351174.4689941406	6.537465040381556	0.01981703485225248	-1
351183.5632324219	6.518352808755972	-0.002757732935126277	-1
351192.6574707031	6.500971496221006	-0.02187396566070635	-1
351201.7517089844	6.494119941487305	-0.03564929910474202	-1
351210.8459472656	6.489143549101776	-0.03815509439202222	-1
351219.9401855469	6.496644198494458	-0.03729964704717503	-1
351229.0344238281	6.501187861107334	-0.02953801640875882	-1
351238.1286621094	6.530252877503977	-0.01298720366467682	-1
351247.2229003906	6.548499649584252	0.01017596940553001	-1
351256.3171386719	6.578141639011102	0.02886437791956399	-1
351265.4113769531	6.597181749007911	0.04532330875159431	-1
351274.5056152344	6.605908466089781	0.05229636386117768	-1
351283.5998535156	6.597614478780566	0.06260938668008795	-1
351292.6940917969	6.57749254435212	0.0726555009447383	-1
351301.7883300781	6.555928177348158	0.03248998641552022	-1
351310.8825683594	6.549581474015889	0.02039575730961886	-1
351319.9768066406	6.553980893371212	0.02656373527145486	-1
351329.0710449219	6.558236069468983	0.02292452501197967	-1
351338.1652832031	6.549076622614458	0.02592483609690287	-1
351347.2595214844	6.529315296329892	0.000967597968622037	-1
351356.3537597656	6.514530362430855	-0.01126424541351871	-1
351365.4479980469	6.479695615732148	-0.03512763109568701	-1
351374.5422363281	6.404689121805325	-0.09006383822397153	-1
351383.6364746094	6.266648324328462	-0.1926187282299681	-1
351392.7307128906	6.067808993793607	-0.3514059955447385	-1
351401.8249511719	6.099903118598833	-0.3939276626987738	-1
351410.9191894531	6.612543655937154	-0.02425997862082858	-1
351420.0134277344	7.416122843757015	0.7147357331118185	-1
351429.1076660156	7.200334930459849	0.9116515227628961	-1
351438.2019042969	6.723033991221666	0.2807899353940574	-1
351447.2961425781	6.621054008132697	0.001875735471744557	-1
351456.3903808594	6.577420422723344	0.05553592152949675	-1
351465.4846191406	6.557514853181226	-0.05103232993957739	-1
351474.5788574219	6.542297189509534	-0.01375445961024193	-1
351483.6730957031	6.535157148260731	-0.04623669450021114	-1
351492.7673339844	6.527223769095394	-0.04686247617487208	-1
351501.8615722656	6.507390321182052	-0.04516837161992932	-1
351510.9558105469	6.488494454442794	-0.08448996244773176	-1
351520.0500488281	6.474574980089066	-0.06626454573566606	-1
351529.1442871094	6.461953695053303	-0.09734598528331592	-1
351538.2385253906	6.458563978500841	-0.07503438370023666	-1
351547.3327636719	6.458059127099411	-0.08284300678947795	-1
351556.4270019531	6.46253066808351	-0.06390557935667296	-1
351565.5212402344	6.468805249787003	-0.05321245886089318	-1
351574.6154785156	6.460655505735339	-0.05142426315004774	-1
351583.7097167969	6.449404531646316	-0.05020855971671674	-1
351592.8039550781	6.437360219640759	-0.06440379883528224	-1
351601.8981933594	6.430580786535834	-0.05370574985584405	-1
351610.9924316406	6.42156558293886	-0.0642185639043016	-1
351620.0866699219	6.413632203773523	-0.054361783916822	-1
351629.1809082031	6.400001215934899	-0.06403317981458818	-1
351638.2751464844	6.379230186847472	-0.0678925615342976	-1
351647.3693847656	6.375984713552561	-0.07154158886319691	-1
351656.4636230469	6.392212080027114	-0.05037859320844249	-1
351665.5578613281	6.421926191082739	-0.01251084814715374	-1
351674.6520996094	6.461737330166976	0.02434127791111135	-1
351683.7463378906	6.503207266713056	0.07434483930305291	-1
351692.8405761719	6.534219567086645	0.1019635386185466	-1
351701.9348144531	6.582613179995201	0.1409239705654814	-1
351711.0290527344	6.609442425899795	0.1698204464969982	-1
351720.1232910156	6.621414616276576	0.175707316080068	-1
351729.2175292969	6.60987515567245	0.1608102959048454	-1
351738.3117675781	6.585642288403784	0.1567209318160102	-1
351747.4060058594	6.565448232346563	0.1558064669843164	-1
351756.5002441406	6.559462137158172	0.130717189425136	-1
351765.5944824219	6.559101529014293	0.1284476538803659	-1
351774.6887207031	6.547345703523839	0.1228872793272966	-1
351783.7829589844	6.533714715685215	0.1008514167979152	-1
351792.8771972656	6.52181464693721	0.09241811988611658	-1
351801.9714355469	6.515179457089837	0.08143232369180446	-1
351811.0656738281	6.507750929325931	0.07663647546448327	-1
351820.1599121094	6.504938185803675	0.07347476357690747	-1
351829.2541503906	6.502341807167746	0.07090609836330281	-1
351838.3483886719	6.526214066292533	0.08638741390453696	-1
351847.4426269531	6.542729919282189	0.1076772994741556	-1
351856.5368652344	6.567972489353716	0.1262528774391449	-1
351865.6311035156	6.583695004426838	0.1410522243072161	-1
351874.7253417969	6.596027802947498	0.1502544673026399	-1
351883.8195800781	6.601220560219355	0.1489386053689405	-1
351892.9138183594	6.600066614158942	0.1456586254807355	-1
351902.0080566406	6.596099924576274	0.1340692991306852	-1
351911.1022949219	6.579007098556412	0.117946780610436	-1
351920.1965332031	6.573670098027003	0.1010933842815442	-1
351929.2907714844	6.566746421664528	0.09310513485854421	-1
351938.3850097656	6.564438529543702	0.08723385923417233	-1
351947.4792480469	6.55931789390062	0.0782940414627166	-1
351956.5734863281	6.560399718332257	0.07740305818617063	-1
351965.6677246094	6.579584071586618	0.08353764895837837	-1
351974.7619628906	6.603167844196301	0.107343349711966	-1
351983.8562011719	6.589464734728901	0.102833349409034	-1
351992.9504394531	6.567107029808406	0.07287551603623595	-1
352002.0446777344	6.56602520537677	0.06104401848497624	-1
352011.1389160156	6.566746421664528	0.062803271227259	-1
352020.2331542969	6.571145841019851	0.06236813456660702	-1
352029.3273925781	6.564799137687581	0.05814232535184771	-1
352038.4216308594	6.559390015529396	0.04971554584491721	-1
352047.5158691406	6.557226366666122	0.04302308758711329	-1
352056.6101074219	6.559606380415723	0.04508583930937974	-1
352065.7043457031	6.564871259316357	0.04553272697014875	-1
352074.7985839844	6.569198557042904	0.05045670022649011	-1
352083.8928222656	6.57201130056516	0.05008185718521634	-1
352092.9870605469	6.56602520537677	0.04563681595428989	-1
352102.0812988281	6.560255475074706	0.03667347936202017	-1
352111.1755371094	6.540205662275036	0.0212666513770761	-1
352120.2697753906	6.50263029368285	-0.00892928871642735	-1
352129.3640136719	6.428128651157457	-0.06741595451315185	-1
352138.4582519531	6.285327826181391	-0.1722772268185342	-1
352147.5524902344	6.147214907075752	-0.3044759577175465	-1
352156.6467285156	6.253594309520044	-0.2728982962709434	-1
352165.7409667969	6.961684460840758	0.222808972566984	-1
352174.8352050781	7.167014737965434	0.7239457045885218	-1
352183.9294433594	6.852203828359107	0.4787007912624549	-1
352193.0236816406	6.685386501000703	0.1628922688472109	-1
352202.1179199219	6.570568867989644	0.1099137438804393	-1
352211.2121582031	6.528305593527031	-0.01434214173667158	-1
352220.3063964844	6.513664902885545	0.007095385645993238	-1
352229.4006347656	6.509770334931653	-0.007822532818113964	-1
352238.4948730469	6.555856055719382	0.01593278312703127	-1
352247.5891113281	6.556865758522243	0.06351736721834017	-1
352256.6833496094	6.540422027161363	0.02166266409098365	-1
352265.7775878906	6.516477646407801	0.02332556955673369	-1
352274.8718261719	6.503495753228159	-0.007760304055988536	-1
352283.9660644531	6.499168455501612	0.001167625591698334	-1
352293.0603027344	6.495346009176494	-0.002559319348251631	-1
352302.1545410156	6.488855062586673	-0.003336273659259562	-1
352311.2487792969	6.467867668612918	-0.009990631528475987	-1
352320.3430175781	6.459934289447581	-0.02621269513893425	-1
352329.4372558594	6.455030018690827	-0.01528178897000955	-1
352338.5314941406	6.451856667024693	-0.01999812073796598	-1
352347.6257324219	6.444211774374459	-0.01319479999669056	-1
352356.7199707031	6.437648706155862	-0.01859623508800001	-1
352365.8142089844	6.424883177862546	-0.01855332581147628	-1
352374.9084472656	6.405554581350635	-0.02948270704304157	-1
352384.0026855469	6.404689121805325	-0.03163110844230604	-1
352393.0969238281	6.420916488279878	-0.009198880694640768	-1
352402.1911621094	6.453731829372863	0.02207793390868968	-1
352411.2854003906	6.495201765918942	0.06678396055760005	-1
352420.3796386719	6.528810444928461	0.1023481100339653	-1
352429.4738769531	6.54698509537996	0.1231902927666819	-1
352438.5681152344	6.567251273065958	0.1339299992828813	-1
352447.6623535156	6.581747720449892	0.146706649998767	-1
352456.7565917969	6.580593774389479	0.1435526029185084	-1
352465.8508300781	6.572804638481694	0.1284153861757965	-1
352474.9450683594	6.571867057307609	0.1187838464006575	-1
352484.0393066406	6.573742219655779	0.1139797786437542	-1
352493.1335449219	6.573742219655779	0.1097079495115564	-1
352502.2277832031	6.574391314314761	0.1026692157485692	-1
352511.3220214844	6.567684002838613	0.09467915665389461	-1
352520.4162597656	6.5665300567782	0.08365837952380818	-1
352529.5104980469	6.567611881209837	0.08052111937328751	80.45834015387133
352538.6047363281	6.569054313785353	0.07731949277751443	80.45834015387133
352547.6989746094	6.565520353975339	0.07004251732796714	80.45834015387133
352556.7932128906	6.565448232346563	0.06413410997082733	80.45834015387133
352565.8874511719	6.567684002838613	0.06055906135849042	80.45834015387133
352574.9816894531	6.585137437002354	0.06779450138409475	80.45834015387133
352584.0759277344	6.593792032455449	0.07635201048105306	80.45834015387133
352593.1701660156	6.6007878304467	0.07581545186172288	80.45834015387133
352602.2644042969	6.60489876328692	0.0735981587693523	80.45834015387133
352611.3586425781	6.606773925635091	0.09137607241113221	80.45834015387133
352620.4528808594	6.610884858475311	0.1110190062236826	80.45834015387133
352629.5471191406	6.603095722567526	0.09523546739612482	80.45834015387133
352638.6413574219	6.592926572910139	0.07868586509054745	80.45834015387133
352647.7355957031	6.580305287874376	0.06751470187167789	80.45834015387133
352656.8298339844	6.602807236052422	0.06592874573930724	80.45834015387133
352665.9240722656	6.623506143511075	0.09367001060730013	80.45834015387133
352675.0183105469	6.627617076351295	0.09460130388118518	80.45834015387133
352684.1125488281	6.614418818285325	0.07925076145182919	80.45834015387133
352693.2067871094	6.601581168363234	0.06208138484321685	80.45834015387133
352702.3010253906	6.592493843137484	0.04476556292226373	80.45834015387133
352711.3952636719	6.571867057307609	0.03152510975650795	80.45834015387133
352720.4895019531	6.566385813520649	0.01174464153040696	80.45834015387133
352729.5837402344	6.566241570263097	0.01524759412105039	80.45834015387133
352738.6779785156	6.571073719391075	0.01617541174322068	80.45834015387133
352747.7722167969	6.574319192685985	0.01887362900526367	80.45834015387133
352756.8664550781	6.578069517382327	0.02292167083454706	80.45834015387133
352765.9606933594	6.577276179465793	0.0197115531443881	80.45834015387133
352775.0549316406	6.567972489353716	0.01531722242782213	80.45834015387133
352784.1491699219	6.552394217538144	-0.002395157142521254	80.45834015387133
352793.2434082031	6.549797838902216	-0.008528815527908282	80.45834015387133
352802.3376464844	6.548716014470579	-0.007994913344690094	80.45834015387133
352811.4318847656	6.547273581895063	-0.008246752189699658	80.45834015387133
352820.5261230469	6.549365109129561	-0.007434739298892252	80.45834015387133
352829.6203613281	6.548139041440373	-0.005501878480488198	80.45834015387133
352838.7145996094	6.558452434355311	-0.0006274015309392488	80.45834015387133
352847.8088378906	6.601220560219355	0.02849060694217892	80.45834015387133
352856.9030761719	6.620477035102491	0.06173371777076294	80.45834015387133
352865.9973144531	6.640310483015834	0.06724705641966267	80.45834015387133
352875.0915527344	6.653941470854458	0.07949733812606684	80.45834015387133
352884.1857910156	6.648388105438722	0.0749583649180821	80.45834015387133
352893.2800292969	6.626895860063537	0.04791701796993522	80.45834015387133
352902.3742675781	6.61038000707388	0.02582455919636245	80.45834015387133
352911.4685058594	6.60439391188549	0.01123606129840567	80.45834015387133
352920.5627441406	6.621126129761473	0.01859785664143761	80.45834015387133
352929.6569824219	6.642978983280538	0.03664108819947657	80.45834015387133
352938.7512207031	6.67189975641963	0.05701292963590159	80.45834015387133
352947.8454589844	6.689497433840923	0.07260569153053842	80.45834015387133
352956.9396972656	6.692021690848076	0.0709873221887577	80.45834015387133
352966.0339355469	6.674207648540455	0.05122330964173914	80.45834015387133
352975.1281738281	6.650335389415669	0.02096846190951077	80.45834015387133
352984.2224121094	6.573021003368021	-0.03588070992030058	80.45834015387133
352993.3166503906	6.47262769611212	-0.1328113149210332	80.45834015387133
353002.4108886719	6.289871488794266	-0.2675592905458831	80.45834015387133
353011.5051269531	6.178443572335669	-0.3988450089016533	80.45834015387133
353020.5993652344	6.325499573409507	-0.3219412136805476	80.45834015387133
353029.6936035156	7.133694545471019	0.2490843405630382	80.45834015387133
353038.7878417969	7.505986393211651	0.8797366618602432	80.45834015387133
353047.8820800781	6.860137207524444	0.5054306613056072	80.45834015387133
353056.9763183594	6.742578952619905	-0.05187143423194248	80.45834015387133
353066.0705566406	6.672909459222491	0.08957663126687598	80.45834015387133
353075.1647949219	6.652787524794046	-0.01960132157852275	80.45834015387133
353084.2590332031	6.63129527941886	-0.05669194349125517	80.45834015387133
353093.3532714844	6.610740615217759	-0.008111586822087701	80.45834015387133
353102.4475097656	6.59891266809853	-0.105481636641152	80.45834015387133
353111.5417480469	6.597686600409341	-0.0266706581603838	80.45834015387133
353120.6359863281	6.595450829917292	-0.0833929027294105	80.45834015387133
353129.7302246094	6.583911369313166	-0.05094509868783308	80.45834015387133
353138.8244628906	6.572227665451488	-0.07194925997377411	80.45834015387133
353147.9187011719	6.560832448104912	-0.08492133314712072	80.45834015387133
353157.0129394531	6.556793636893468	-0.06281905052620415	80.45834015387133
353166.1071777344	6.546624487236081	-0.09441239047154502	80.45834015387133
353175.2014160156	6.529964390988874	-0.06701636782102186	80.45834015387133
353184.2956542969	6.488278089556467	-0.1232307945969664	80.45834015387133
353193.3898925781	6.466497357666178	-0.1192294757504979	80.45834015387133
353202.4841308594	6.446086936722629	-0.1415710540188913	80.45834015387133
353211.5783691406	6.42704682672582	-0.1371591158049509	80.45834015387133
353220.6726074219	6.412694622599438	-0.1417339986830218	80.45834015387133
353229.7668457031	6.400650310593881	-0.1422198175816775	80.45834015387133
353238.8610839844	6.404112148775119	-0.1204429648190026	80.45834015387133
353247.9553222656	6.4297874486193	-0.1012819389498696	80.45834015387133
353257.0495605469	6.460150654333908	-0.04217056432413076	80.45834015387133
353266.1437988281	6.490225373533413	-0.0197480196644935	80.45834015387133
353275.2380371094	6.52643043117886	0.03235641737193883	80.45834015387133
353284.3322753906	6.563428826740841	0.06272245601445457	80.45834015387133
353293.4265136719	6.59804720855322	0.1026342676711492	80.45834015387133
353302.5207519531	6.619034602526975	0.123910016926592	80.45834015387133
353311.6149902344	6.624948576086591	0.1269473823409926	80.45834015387133
353320.7092285156	6.629059508926811	0.1285905503744671	80.45834015387133
353329.8034667969	6.647955375666068	0.1292323757475462	80.45834015387133
353338.8977050781	6.669087012897374	0.1520662898244642	80.45834015387133
353347.9919433594	6.671106418503096	0.1467005633983521	80.45834015387133
353357.0861816406	6.665408809829809	0.1378822136474521	80.45834015387133
353366.1804199219	6.652210551763839	0.1161602558904058	80.45834015387133
353375.2746582031	6.645503240287691	0.1018120649703661	80.45834015387133
353384.3688964844	6.635911063660511	0.08836424327413517	80.45834015387133
353393.4631347656	6.627977684495174	0.074339303716925	80.45834015387133
353402.5573730469	6.618529751125545	0.06308460115858885	80.45834015387133
353411.6516113281	6.605908466089781	0.04743198476476063	80.45834015387133
353420.7458496094	6.598263573439548	0.03689576881570467	80.45834015387133
353429.8400878906	6.589464734728901	0.02686906170531293	80.45834015387133
353438.9343261719	6.584055612570717	0.02100807795138567	80.45834015387133
353448.0285644531	6.574535557572313	0.01208998564528907	80.45834015387133
353457.1228027344	6.564943380945133	0.004334114727822437	80.45834015387133
353466.2170410156	6.565448232346563	0.0001423825595219296	80.45834015387133
353475.3112792969	6.571290084277402	0.02878048585447627	80.45834015387133
353484.4055175781	6.573021003368021	0.05766620720266605	80.45834015387133
353493.4997558594	6.577564665980896	0.05203921420955499	80.45834015387133
353502.5939941406	6.586724112835421	0.06259850340452661	80.45834015387133
353511.6882324219	6.593647789197897	0.07443250018420516	80.45834015387133
353520.7824707031	6.616654588777374	0.08438874342028763	80.45834015387133
353529.8767089844	6.623578265139851	0.1041313304577308	80.45834015387133
353538.9709472656	6.631151036161309	0.1014726133064906	80.45834015387133
353548.0651855469	6.629997090100896	0.1028717215494135	80.45834015387133
353557.1594238281	6.627544954722519	0.09798939830963031	80.45834015387133
353566.2536621094	6.61860187275432	0.0859022319743242	80.45834015387133
353575.3479003906	6.610524250331432	0.07887565599081811	80.45834015387133
353584.4421386719	6.604970884915696	0.06696875494506752	80.45834015387133
353593.5363769531	6.612904264081033	0.07226950092489962	80.45834015387133
353602.6306152344	6.628482535896604	0.08236802691501348	80.45834015387133
353611.7248535156	6.650912362445875	0.1010794419043865	80.45834015387133
353620.8190917969	6.668582161495944	0.1164660927900331	80.45834015387133
353629.9133300781	6.663461525852862	0.1143224206921698	80.45834015387133
353639.0075683594	6.648748713582601	0.09548055123622355	80.45834015387133
353648.1018066406	6.629852846843344	0.07293833461907133	80.45834015387133
353657.1960449219	6.603239965825077	0.04974243158685952	80.45834015387133
353666.2902832031	6.585353801888681	0.02424031593725114	80.45834015387133
353675.3845214844	6.568477340755146	0.01325615497553877	80.45834015387133
353684.4787597656	6.558452434355311	0.001015425491130787	80.45834015387133
353693.5729980469	6.557514853181226	0.001186215607881338	80.45834015387133
353702.6672363281	6.562491245566756	0.008829113670744388	80.45834015387133
353711.7614746094	6.568405219126371	0.01613013832928242	80.45834015387133
353720.8557128906	6.599994492530167	0.03923042140674342	80.45834015387133
353729.9499511719	6.622857048852092	0.06864524072403984	80.45834015387133
353739.0441894531	6.643411713053193	0.0856302247534203	80.45834015387133
353748.1384277344	6.648027497294843	0.09109344471332861	80.45834015387133
353757.2326660156	6.643916564454623	0.08625194453181909	80.45834015387133
353766.3269042969	6.632377103850497	0.07032949627288465	80.45834015387133
353775.4211425781	6.617664291580235	0.05599390102542666	80.45834015387133
353784.5153808594	6.603672695597732	0.03785837208366089	80.45834015387133
353793.6096191406	6.611966682906948	0.03682142287006081	80.45834015387133
353802.7038574219	6.615572764345737	0.04567205553827945	80.45834015387133
353811.7980957031	6.616798832034926	0.04347747446613995	80.45834015387133
353820.8923339844	6.62083764324637	0.04493117928151798	80.45834015387133
353829.9865722656	6.623866751654954	0.04721551333686233	80.45834015387133
353839.0808105469	6.638363199038888	0.05344390343481316	80.45834015387133
353848.1750488281	6.654229957369561	0.06769088586787281	80.45834015387133
353857.2692871094	6.639949874871955	0.06263526533215885	80.45834015387133
353866.3635253906	6.622280075821886	0.03637921334300098	80.45834015387133
353875.4577636719	6.612543655937154	0.02372016642089218	80.45834015387133
353884.5520019531	6.59667689760648	0.01165100100808031	80.45834015387133
353893.6462402344	6.57698769295069	-0.008437543569959276	80.45834015387133
353902.7404785156	6.540926878562794	-0.03366692202524425	80.45834015387133
353911.8347167969	6.461088235507994	-0.09174031746346224	80.45834015387133
353920.9289550781	6.172168990632176	-0.2783022443744453	80.45834015387133
353930.0231933594	6.191353343886537	-0.4057564891370173	80.45834015387133
353939.1174316406	6.587733815638282	-0.07906243982892575	80.45834015387133
353948.2116699219	7.449875766024086	0.6234616057271039	80.45834015387133
353957.3059082031	7.336500565588542	0.9543221186237079	80.45834015387133
353966.4001464844	6.984619138791459	0.4751097162374343	80.45834015387133
353975.4943847656	6.813546635335284	0.1653694280705728	80.45834015387133
353984.5886230469	6.704787219141391	0.1346759013822855	80.45834015387133
353993.6828613281	6.622640683965765	-0.0475372815668545	80.45834015387133
354002.7770996094	6.605475736317127	-0.01909918528252633	80.45834015387133
354011.8713378906	6.596099924576274	-0.05493530970032315	80.45834015387133
354020.9655761719	6.596099924576274	-0.0436205079574237	80.45834015387133
354030.0598144531	6.598191451810772	-0.02732964980695178	80.45834015387133
354039.1540527344	6.604610276771817	-0.04146650460998598	80.45834015387133
354048.2482910156	6.599922370901391	-0.005081591979954874	80.45834015387133
354057.3425292969	6.571073719391075	-0.05517812400629754	80.45834015387133
354066.4367675781	6.551745122879162	-0.04494760118078441	80.45834015387133
354075.5310058594	6.534580175230524	-0.07735508098871531	80.45834015387133
354084.6252441406	6.520732822505573	-0.06654244811352714	80.45834015387133
354093.7194824219	6.505587280462657	-0.08040456074543217	80.45834015387133
354102.8137207031	6.491956292624032	-0.08346864629161079	80.45834015387133
354111.9079589844	6.475151953119273	-0.08141498829506347	80.45834015387133
354121.0021972656	6.46577614137842	-0.09448914514385982	80.45834015387133
354130.0964355469	6.439595990132808	-0.08428196165217047	80.45834015387133
354139.1906738281	6.42380135343091	-0.1106439085799442	80.45834015387133
354148.2849121094	6.407501865327581	-0.0948119970991423	80.45834015387133
354157.3791503906	6.401155161995312	-0.1024447982005637	80.45834015387133
354166.4733886719	6.40101091873776	-0.08222220352340137	80.45834015387133
354175.5676269531	6.410891581880043	-0.06439528753143806	80.45834015387133
354184.6618652344	6.433537773315641	-0.03559711811818746	80.45834015387133
354193.7561035156	6.496860563380785	0.0251294538125288	80.45834015387133
354202.8503417969	6.526718917693963	0.07506550261664678	80.45834015387133
354211.9445800781	6.557154245037347	0.1042012694790332	80.45834015387133
354221.0388183594	6.585281680259906	0.125774558388226	80.45834015387133
354230.1330566406	6.605187249802023	0.1544370992135981	80.45834015387133
354239.2272949219	6.622640683965765	0.1562763667882648	80.45834015387133
354248.3215332031	6.63129527941886	0.1699806358546241	80.45834015387133
354257.4157714844	6.641969280477677	0.1659041710139865	80.45834015387133
354266.5100097656	6.646296578204225	0.1675166174064764	80.45834015387133
354275.6042480469	6.646296578204225	0.1616124208833059	80.45834015387133
354284.6984863281	6.638723807182767	0.1450421141220597	80.45834015387133
354293.7927246094	6.630285576615999	0.1344772962590296	80.45834015387133
354302.8869628906	6.628482535896604	0.1175656794426795	80.45834015387133
354311.9812011719	6.636199550175614	0.1221749200879352	80.45834015387133
354321.0754394531	6.654806930399768	0.1259360599782498	80.45834015387133
354330.1696777344	6.661802728391019	0.1351768156918748	80.45834015387133
354339.2639160156	6.641392307447471	0.1148603699794617	80.45834015387133
354348.3581542969	6.618962480898199	0.08219875845917374	80.45834015387133
354357.4523925781	6.60713453377897	0.06479472878868554	80.45834015387133
354366.5466308594	6.599056911356081	0.05157038423528554	80.45834015387133
354375.6408691406	6.591700505220951	0.04396985182631268	80.45834015387133
354384.7351074219	6.581747720449892	0.031156909005289	80.45834015387133
354393.8293457031	6.574535557572313	0.02342349038386642	80.45834015387133
354402.9235839844	6.573597976398228	0.01808811823668382	80.45834015387133
354412.0178222656	6.575112530602519	0.02046613774426578	80.45834015387133
354421.1120605469	6.580665896018255	0.0227613354879905	80.45834015387133
354430.2062988281	6.586724112835421	0.02821825732117612	80.45834015387133
354439.3005371094	6.599706006015063	0.03660935699043569	80.45834015387133
354448.3947753906	6.612543655937154	0.06769245753467496	80.45834015387133
354457.4890136719	6.627761319608847	0.1040081060813452	80.45834015387133
354466.5832519531	6.639372901841749	0.1028722348300204	80.45834015387133
354475.6774902344	6.642113523735229	0.106659807842281	80.45834015387133
354484.7717285156	6.641031699303592	0.1033998748222678	80.45834015387133
354493.8659667969	6.638291077410112	0.09263013541752667	80.45834015387133
354502.9602050781	6.637425617864802	0.09137597585169198	80.45834015387133
354512.0544433594	6.634468631084995	0.08201601692357757	80.45834015387133
354521.1486816406	6.63129527941886	0.07782105674026627	80.45834015387133
354530.2429199219	6.626607373548434	0.06922886027258007	80.45834015387133
354539.3371582031	6.636488036690717	0.0698696550598347	80.45834015387133
354548.4313964844	6.644132929340951	0.0785502152187022	80.45834015387133
354557.5256347656	6.643051104909314	0.07512015754051164	80.45834015387133
354566.6198730469	6.630429819873551	0.06343513080477312	80.45834015387133
354575.7141113281	6.619395210670854	0.04686035191325423	80.45834015387133
354584.8083496094	6.607206655407746	0.03515074455078875	80.45834015387133
354593.9025878906	6.576410719920483	0.0120074504852395	80.45834015387133
354602.9968261719	6.558380312726535	-0.01367064347534973	80.45834015387133
354612.0910644531	6.548932379356907	-0.01945316441546433	80.45834015387133
354621.1853027344	6.550014203788543	-0.01826908386169836	80.45834015387133
354630.2795410156	6.555134839431624	-0.01095848281703086	80.45834015387133
354639.3737792969	6.564150043028599	0.0008809763395565253	80.45834015387133
354648.4680175781	6.578934976927636	0.01384068529438145	80.45834015387133
354657.5622558594	6.596532654348929	0.0328769468586657	80.45834015387133
354666.6564941406	6.630501941502327	0.05740859902228967	80.45834015387133
354675.7507324219	6.644277172598502	0.07999097346551377	80.45834015387133
354684.8449707031	6.64773901077974	0.07857665906534947	80.45834015387133
354693.9392089844	6.642834740022987	0.07046914047409608	80.45834015387133
354703.0334472656	6.638507442296439	0.06315983158453259	80.45834015387133
354712.1276855469	6.627328589836192	0.04877107935559015	80.45834015387133
354721.2219238281	6.617808534837787	0.03740122046671214	80.45834015387133
354730.3161621094	6.623217656995971	0.03226447764216652	80.45834015387133
354739.4104003906	6.628915265669259	0.04030335591747526	80.45834015387133
354748.5046386719	6.6258140356319	0.03648674805662305	80.45834015387133
354757.5988769531	6.622280075821886	0.02888621458181031	80.45834015387133
354766.6931152344	6.617520048322684	0.02443058731343251	80.45834015387133
354775.7873535156	6.623145535367195	0.02162524238148392	80.45834015387133
354784.8815917969	6.628771022411708	0.02896610677735141	80.45834015387133
354793.9758300781	6.614779426429204	0.01965428264993226	80.45834015387133
354803.0700683594	6.6076393851804	0.004816267365282129	80.45834015387133
354812.1643066406	6.604610276771817	0.001940136716060702	80.45834015387133
354821.2585449219	6.598552059954651	-0.00250118789166064	80.45834015387133
354830.3527832031	6.590907167304417	-0.01097826757398411	80.45834015387133
354839.4470214844	6.58383924768439	-0.01662574129140755	80.45834015387133
354848.5412597656	6.579079220185188	-0.0216662992350069	80.45834015387133
354857.6354980469	6.577781030867223	-0.02237063239575216	80.45834015387133
354866.7297363281	6.577420422723344	-0.02092132388097331	80.45834015387133
354875.8239746094	6.588238667039713	-0.01436856897045813	80.45834015387133
354884.9182128906	6.577059814579465	-0.0120638684027437	80.45834015387133
354894.0124511719	6.523112836255174	-0.05029036367687155	80.45834015387133
354903.1066894531	6.426758340210717	-0.1278979822064418	80.45834015387133
354912.2009277344	6.257560999102712	-0.2536780246306566	80.45834015387133
354921.2951660156	6.266720445957238	-0.2919355443040558	80.45834015387133
354930.3894042969	7.453842455606754	0.4351402346293953	80.45834015387133
354939.4836425781	7.372345015090111	1.085035157413838	80.45834015387133
354948.5778808594	6.991470693525159	0.4450990411820295	80.45834015387133
354957.6721191406	6.796670174201748	0.1282525523832337	80.45834015387133
354966.7663574219	6.678895554410882	0.126187699166172	80.45834015387133
354975.8605957031	6.629492238699466	-0.104725804184203	80.45834015387133
354984.9548339844	6.622784927223316	0.02025167781292303	80.45834015387133
354994.0490722656	6.607855750066728	-0.07939922515079566	80.45834015387133
355003.1433105469	6.588671396812368	-0.04601703032177421	80.45834015387133
355012.2375488281	6.582613179995201	-0.05936971235114474	80.45834015387133
355021.3317871094	6.572155543822712	-0.08532180309165521	80.45834015387133
355030.4260253906	6.561481542763895	-0.04181884801185599	80.45834015387133
355039.5202636719	6.560904569733688	-0.1006147591955642	80.45834015387133
355048.6145019531	6.55470210965897	-0.03229650899172138	80.45834015387133
355057.7087402344	6.560399718332257	-0.08258518316937749	80.45834015387133
355066.8029785156	6.580521652760703	-0.01768794638661985	80.45834015387133
355075.8972167969	6.580882260904582	-0.02696265619365913	80.45834015387133
355084.9914550781	6.569414921929232	-0.0258909463900762	80.45834015387133
355094.0856933594	6.559678502044499	-0.0249983983757247	80.45834015387133
355103.1799316406	6.540061419017484	-0.05168255959849662	80.45834015387133
355112.2741699219	6.507823050954706	-0.04746324435883976	80.45834015387133
355121.3684082031	6.482147751110524	-0.09762693399300292	80.45834015387133
355130.4626464844	6.434908084262381	-0.09240664962526589	80.45834015387133
355139.5568847656	6.421277096423757	-0.1368842302062497	80.45834015387133
355148.6511230469	6.414425541690057	-0.1052380226141675	80.45834015387133
355157.7453613281	6.423873475059685	-0.09916404786685752	80.45834015387133
355166.8395996094	6.443634801344253	-0.0677058839394042	80.45834015387133
355175.9338378906	6.473925885430084	-0.02310074787625995	80.45834015387133
355185.0280761719	6.508688510500016	0.005900205085210063	80.45834015387133
355194.1223144531	6.54099900019157	0.05916193642667875	80.45834015387133
355203.2165527344	6.578502247154981	0.07906827230643523	80.45834015387133
355212.3107910156	6.58845503192604	0.1150830173695136	80.45834015387133
355221.4050292969	6.595811438061171	0.1041585519726259	80.45834015387133
355230.4992675781	6.600210857416494	0.1146358845961783	80.45834015387133
355239.5935058594	6.602230263022216	0.1120733816440033	80.45834015387133
355248.6877441406	6.602662992794871	0.1065972523817994	80.45834015387133
355257.7819824219	6.605475736317127	0.1103531959441659	80.45834015387133
355266.8762207031	6.615428521088186	0.1065070540599213	80.45834015387133
355275.9704589844	6.62083764324637	0.1183678137039679	80.45834015387133
355285.0646972656	6.620621278360042	0.107483066209294	80.45834015387133
355294.1589355469	6.621414616276576	0.1077271951415756	80.45834015387133
355303.2531738281	6.620116426958612	0.09981082377660702	80.45834015387133
355312.3474121094	6.61997218370106	0.09563697484262106	80.45834015387133
355321.4416503906	6.619034602526975	0.09108985483604218	80.45834015387133
355330.5358886719	6.605187249802023	0.07762273395399455	80.45834015387133
355339.6301269531	6.588022302153386	0.05861088326293951	80.45834015387133
355348.7243652344	6.587012599350524	0.04626710964869889	80.45834015387133
355357.8186035156	6.59069080241809	0.05287093221977057	80.45834015387133
355366.9128417969	6.59256596476626	0.05054445187920299	80.45834015387133
355376.0070800781	6.599201154613633	0.05459161970021063	80.45834015387133
355385.1013183594	6.604249668627938	0.05781495858823779	80.45834015387133
355394.1955566406	6.605692101203454	0.05767043909711023	80.45834015387133
355403.2897949219	6.604466033514266	0.05417600404748015	80.45834015387133
355412.3840332031	6.605619979574678	0.05071138186875235	80.45834015387133
355421.4782714844	6.610235763816329	0.07264523607387408	80.45834015387133
355430.5725097656	6.611461831505517	0.09665782949255909	80.45834015387133
355439.6667480469	6.616510345519822	0.08877543614294611	80.45834015387133
355448.7609863281	6.615717007603289	0.08901783244046228	80.45834015387133
355457.8552246094	6.617592169951459	0.09093426363672524	80.45834015387133
355466.9494628906	6.619395210670854	0.08470196981308469	80.45834015387133
355476.0437011719	6.624587967942712	0.09218048675012466	80.45834015387133
355485.1379394531	6.62530918423047	0.08756203351362085	80.45834015387133
355494.2321777344	6.631078914532533	0.09037399292869836	80.45834015387133
355503.3264160156	6.631872252449067	0.09013092588573399	80.45834015387133
355512.4206542969	6.634612874342547	0.08717002776426081	80.45834015387133
355521.5148925781	6.639949874871955	0.08988456455104818	80.45834015387133
355530.6091308594	6.63901229369787	0.0867062024098671	80.45834015387133
355539.7033691406	6.633891658054789	0.08053726450655727	80.45834015387133
355548.7976074219	6.624371603056384	0.06761254632683378	80.45834015387133
355557.8918457031	6.618313386239217	0.05931631568853463	80.45834015387133
355566.9860839844	6.610740615217759	0.05003736615100847	80.45834015387133
355576.0803222656	6.61038000707388	0.04626702522270336	80.45834015387133
355585.1745605469	6.613264872224912	0.04730439788093401	80.45834015387133
355594.2687988281	6.612255169422051	0.0476510160981658	80.45834015387133
355603.3630371094	6.610740615217759	0.0440123649432986	80.45834015387133
355612.4572753906	6.608360601468158	0.04107237372033305	80.45834015387133
355621.5515136719	6.603744817226508	0.03724578057745263	80.45834015387133
355630.6457519531	6.593936275713	0.0278949638530152	80.45834015387133
355639.7399902344	6.587805937267058	0.02091165798761994	80.45834015387133
355648.8342285156	6.572660395224142	0.01059825487337097	80.45834015387133
355657.9284667969	6.561265177877568	-0.001345916546197605	80.45834015387133
355667.0227050781	6.569414921929232	0.0006732112533779913	80.45834015387133
355676.1169433594	6.589753221244004	0.02217953745738919	80.45834015387133
355685.2111816406	6.591844748478502	0.03269055719526363	80.45834015387133
355694.3054199219	6.599561762757512	0.03359070031600836	80.45834015387133
355703.3996582031	6.599706006015063	0.03884293177247149	80.45834015387133
355712.4938964844	6.598263573439548	0.03544944046001753	80.45834015387133
355721.5881347656	6.60028297904527	0.0343709026055179	80.45834015387133
355730.6823730469	6.593215059425242	0.03270982073938408	80.45834015387133
355739.7766113281	6.598552059954651	0.02845191608225079	80.45834015387133
355748.8708496094	6.605403614688351	0.03763346179861055	80.45834015387133
355757.9650878906	6.608432723096934	0.04055765479092935	80.45834015387133
355767.0593261719	6.596460532720153	0.03166134937518041	80.45834015387133
355776.1535644531	6.592493843137484	0.02263780509971129	80.45834015387133
355785.2478027344	6.599129032984857	0.02435173539928792	80.45834015387133
355794.3420410156	6.614707304800428	0.03852299459858471	80.45834015387133
355803.4362792969	6.630429819873551	0.05059033260838149	80.45834015387133
355812.5305175781	6.634468631084995	0.05768189722475576	80.45834015387133
355821.6247558594	6.636560158319493	0.05337072691185543	80.45834015387133
355830.7189941406	6.627112224949864	0.04618226350370842	80.45834015387133
355839.8132324219	6.604970884915696	0.02540400491405938	80.45834015387133
355848.9074707031	6.597253870636687	0.006770273859748705	80.45834015387133
355858.0017089844	6.588166545410937	0.003889075488236	80.45834015387133
355867.0959472656	6.573742219655779	-0.01087130022588013	80.45834015387133
355876.1901855469	6.568405219126371	-0.01884610723966775	80.45834015387133
355885.2844238281	6.579584071586618	-0.01116885225161573	80.45834015387133
355894.3786621094	6.559534258786948	-0.01387196969259933	80.45834015387133
355903.4729003906	6.481426534822766	-0.05003309945202155	80.45834015387133
355912.5671386719	6.381249592453194	-0.1179981323034167	80.45834015387133
355921.6613769531	6.246886998043895	-0.2244770686045745	80.45834015387133
355930.7556152344	6.300833976368186	-0.2355533093627684	80.45834015387133
355939.8498535156	7.639411406446864	0.5682906064809686	80.45834015387133
355948.9440917969	7.457232172159216	1.243807257421951	80.45834015387133
355958.0383300781	7.034022454502876	0.4750626241773467	80.45834015387133
355967.1325683594	6.766523333373468	0.1114960149343318	80.45834015387133
355976.2268066406	6.642618375136659	0.09096672798486152	80.45834015387133
355985.3210449219	6.590041707759108	-0.1604255658093927	80.45834015387133
355994.4152832031	6.582324693480098	-0.001227969353656017	80.45834015387133
356003.5095214844	6.561553664392671	-0.1321826911454122	80.45834015387133
356012.6037597656	6.551240271477732	-0.07128084881355498	80.45834015387133
356021.6979980469	6.575184652231295	-0.07009771788813173	80.45834015387133
356030.7922363281	6.567251273065958	-0.07665072914636931	80.45834015387133
356039.8864746094	6.563645191627169	-0.02743850950426663	80.45834015387133
356048.9807128906	6.589897464501556	-0.08075399901972795	80.45834015387133
356058.0749511719	6.607062412150194	0.0316379258696797	80.45834015387133
356067.1691894531	6.586219261433991	-0.04845095645978781	80.45834015387133
356076.2634277344	6.536311094321143	-0.0279398650549343	80.45834015387133
356085.3576660156	6.502197563910195	-0.1021122233276419	80.45834015387133
356094.4519042969	6.483157453913385	-0.09664597371719438	80.45834015387133
356103.5461425781	6.486979900238502	-0.08464391936924844	80.45834015387133
356112.6403808594	6.497581779668543	-0.08517987186270781	80.45834015387133
356121.7346191406	6.512799443340236	-0.02824129426550877	80.45834015387133
356130.8288574219	6.55931789390062	-0.02870254231896288	80.45834015387133
356139.9230957031	6.537681405267883	0.03152323010324536	80.45834015387133
356149.0173339844	6.529098931443564	-0.02970946494776983	80.45834015387133
356158.1115722656	6.57698769295069	0.03068787471730143	80.45834015387133
356167.2058105469	6.554629988030194	0.03981592781780929	80.45834015387133
356176.3000488281	6.520227971104142	-0.004130476527497566	80.45834015387133
356185.3942871094	6.526069823034981	-0.0004496856231801646	80.45834015387133
356194.4885253906	6.550446933561198	0.01814114734576525	80.45834015387133
356203.5827636719	6.597758722038117	0.0696751156988755	80.45834015387133
356212.6770019531	6.678390703009451	0.1232072038865761	80.45834015387133
356221.7712402344	6.70103689444505	0.1832178066393039	80.45834015387133
356230.8654785156	6.706085408459355	0.159533373399043	80.45834015387133
356239.9597167969	6.70976361152692	0.1635201567300614	80.45834015387133
356249.0539550781	6.698368394180346	0.1464945540535287	80.45834015387133
356258.1481933594	6.688127122894183	0.1221403626807968	80.45834015387133
356267.2424316406	6.670457323844114	0.1071319570443576	80.45834015387133
356276.3366699219	6.646585064719328	0.07256482251620237	80.45834015387133
356285.4309082031	6.653364497824252	0.06737347704773977	80.45834015387133
356294.5251464844	6.657114822520593	0.06948490709354012	80.45834015387133
356303.6193847656	6.665480931458585	0.07372715224415	80.45834015387133
356312.7136230469	6.673991283654128	0.07373749613729527	59.43769272628333
356321.8078613281	6.693464123423592	0.08707947577239364	59.43769272628333
356330.9020996094	6.690435015015009	0.0859409936011591	59.43769272628333
356339.9963378906	6.681419811418034	0.07069845882811597	59.43769272628333
356349.0905761719	6.666706999147773	0.05230366714212309	59.43769272628333
356358.1848144531	6.641248064189919	0.02810780755053576	59.43769272628333
356367.2790527344	6.640526847902161	0.0122840547038347	59.43769272628333
356376.3732910156	6.639300780212973	0.01495566412665215	59.43769272628333
356385.4675292969	6.601004195333028	-0.007376570554474257	59.43769272628333
356394.5617675781	6.565808840490442	-0.05268067975554908	59.43769272628333
356403.6560058594	6.562058515794101	-0.05892810372110231	59.43769272628333
356412.7502441406	6.612543655937154	-0.02606197672912577	59.43769272628333
356421.8444824219	6.643555956310745	0.02402222734909692	59.43769272628333
356430.9387207031	6.657259065778145	0.03571048090439599	59.43769272628333
356440.0329589844	6.663100917708984	0.03782085904033539	59.43769272628333
356449.1271972656	6.652210551763839	0.05489510703273219	59.43769272628333
356458.2214355469	6.626967981692313	0.05032103840916895	59.43769272628333
356467.3156738281	6.61672671040615	0.02792725861830535	59.43769272628333
356476.4099121094	6.595955681318722	0.0151353295449583	59.43769272628333
356485.5041503906	6.602013898135889	0.01504485923658211	59.43769272628333
356494.5983886719	6.61398608851267	0.02608429573115691	59.43769272628333
356503.6926269531	6.619250967413302	0.04232170345374718	59.43769272628333
356512.7868652344	6.627905562866398	0.04258825506624661	59.43769272628333
356521.8811035156	6.639372901841749	0.05847260863410048	59.43769272628333
356530.9753417969	6.649830538014238	0.06708538699146441	59.43769272628333
356540.0695800781	6.64499838888626	0.06635883518061346	59.43769272628333
356549.1638183594	6.661730606762244	0.07174998670078871	59.43769272628333
356558.2580566406	6.662091214906122	0.07837779806878227	59.43769272628333
356567.3522949219	6.66555305308736	0.07807847314816234	59.43769272628333
356576.4465332031	6.676154932517401	0.07844679099964141	59.43769272628333
356585.5407714844	6.687189541720098	0.09336439380198602	59.43769272628333
356594.6350097656	6.696493231832175	0.09274834178167216	59.43769272628333
356603.7292480469	6.696565353460951	0.09598086787075302	59.43769272628333
356612.8234863281	6.700027191642189	0.08944869540224942	59.43769272628333
356621.9177246094	6.708465422208956	0.09164990800225049	59.43769272628333
356631.0119628906	6.704787219141391	0.09123711683754129	59.43769272628333
356640.1062011719	6.688487731038062	0.06946258815706585	59.43769272628333
356649.2004394531	6.666130026117567	0.04923574970779752	59.43769272628333
356658.2946777344	6.645214753772588	0.02237743982113567	59.43769272628333
356667.3889160156	6.623073413738419	0.004970978240869262	59.43769272628333
356676.4831542969	6.600138735787718	-0.0175233775568212	59.43769272628333
356685.5773925781	6.564871259316357	-0.04198329532584756	59.43769272628333
356694.6716308594	6.570568867989644	-0.05069711379122439	59.43769272628333
356703.7658691406	6.577564665980896	-0.03039329784884831	59.43769272628333
356712.8601074219	6.602951479309974	-0.008770625837487637	59.43769272628333
356721.9543457031	6.635045604115201	0.02211359866452609	59.43769272628333
356731.0485839844	6.656970579263041	0.05429557640657456	59.43769272628333
356740.1428222656	6.68336709539498	0.0675966710309038	59.43769272628333
356749.2370605469	6.702046597247911	0.09247132211990677	59.43769272628333
356758.3312988281	6.698512637437897	0.08826240840302643	59.43769272628333
356767.4255371094	6.687550149863977	0.07258226935853515	59.43769272628333
356776.5197753906	6.682790122364774	0.06220942235118299	59.43769272628333
356785.6140136719	6.676154932517401	0.05253559554514835	59.43769272628333
356794.7082519531	6.669447621041253	0.04489561874674261	59.43769272628333
356803.8024902344	6.659278471383867	0.03161534683278651	59.43769272628333
356812.8967285156	6.632521347108049	0.01373492148649364	59.43769272628333
356821.9909667969	6.626318887033331	-0.006600554490179712	59.43769272628333
356831.0852050781	6.618169142981666	-0.005118531177266391	59.43769272628333
356840.1794433594	6.589681099615229	-0.024309942430903	59.43769272628333
356849.2736816406	6.509337605158998	-0.08129531717291731	59.43769272628333
356858.3679199219	6.390409039307719	-0.1769925934974637	59.43769272628333
356867.4621582031	6.232967523690167	-0.3031491479374284	59.43769272628333
356876.5563964844	6.290520583453248	-0.3141866264119181	59.43769272628333
356885.6506347656	7.481032309655227	0.4139231712158376	59.43769272628333
356894.7448730469	7.210936809889891	0.9646619657257907	59.43769272628333
356903.8391113281	6.860786302183426	0.2311171859020786	59.43769272628333
356912.9333496094	6.72072609910084	0.02358911095307024	59.43769272628333
356922.0275878906	6.629131630555587	0.06828287102667646	59.43769272628333
356931.1218261719	6.579439828329067	-0.1774748722746022	59.43769272628333
356940.2160644531	6.566818543293303	-0.02355050500054386	59.43769272628333
356949.3103027344	6.544028108600153	-0.1546835005858088	59.43769272628333
356958.4045410156	6.5483554063267	-0.06702152054119372	59.43769272628333
356967.4987792969	6.553548163598557	-0.04312211523039054	59.43769272628333
356976.5930175781	6.556288785492037	-0.06364643162895836	59.43769272628333
356985.6872558594	6.55744273155245	-0.001072902346016735	59.43769272628333
356994.7814941406	6.553259677083454	-0.05954236832532942	59.43769272628333
357003.8757324219	6.553259677083454	0.01250373945450113	59.43769272628333
357012.9699707031	6.545182054660566	-0.04438581450121076	59.43769272628333
357022.0642089844	6.518785538528626	-0.007110367891584632	59.43769272628333
357031.1584472656	6.512510956825133	-0.04913819115795015	59.43769272628333
357040.2526855469	6.501909077395092	-0.02717664071917188	59.43769272628333
357049.3469238281	6.485465346034211	-0.03101837809217918	59.43769272628333
357058.4411621094	6.484888373004004	-0.04603452530608738	59.43769272628333
357067.5354003906	6.479335007588269	-0.006705954505344149	59.43769272628333
357076.6296386719	6.467795546984142	-0.04102324112974019	59.43769272628333
357085.7238769531	6.45344334285776	-0.0102228193953368	59.43769272628333
357094.8181152344	6.455174261948379	-0.03405407726140789	59.43769272628333
357103.9123535156	6.445582085321199	-0.001686903089524686	59.43769272628333
357113.0065917969	6.43974023339036	-0.0160381057361381	59.43769272628333
357122.1008300781	6.449765139790195	0.004276224979650051	59.43769272628333
357131.1950683594	6.467723425355366	0.03398893547748731	59.43769272628333
357140.2893066406	6.488278089556467	0.05101762639654577	59.43769272628333
357149.3835449219	6.527584377239273	0.1003908153594161	59.43769272628333
357158.4777832031	6.546119635834651	0.1181111746868051	59.43769272628333
357167.5720214844	6.562347002309204	0.1444386984668761	59.43769272628333
357176.6662597656	6.583045909767856	0.1483799052070567	59.43769272628333
357185.7604980469	6.584632585600923	0.1678091546568793	59.43769272628333
357194.8547363281	6.570352503103317	0.1443000964157319	59.43769272628333
357203.9489746094	6.552538460795696	0.1282447311874964	59.43769272628333
357213.0432128906	6.532272283109699	0.1086337423757109	59.43769272628333
357222.1374511719	6.495634495691597	0.07605507447429721	59.43769272628333
357231.2316894531	6.478758034558062	0.05660302671638028	59.43769272628333
357240.3259277344	6.461593086909424	0.04178030526114338	59.43769272628333
357249.4201660156	6.465415533234541	0.04810753888843956	59.43769272628333
357258.5144042969	6.492100535881583	0.06462634198663457	59.43769272628333
357267.6086425781	6.531478945193165	0.1111343645867878	59.43769272628333
357276.7028808594	6.566241570263097	0.1407180401172168	59.43769272628333
357285.7971191406	6.61038000707388	0.1780747971019455	59.43769272628333
357294.8913574219	6.621847346049231	0.1970235134172447	59.43769272628333
357303.9855957031	6.623001292109644	0.1859703386540373	59.43769272628333
357313.0798339844	6.619755818814733	0.1777148796526827	59.43769272628333
357322.1740722656	6.616149737375944	0.1640029990873749	59.43769272628333
357331.2683105469	6.616366102262271	0.1561981632065228	59.43769272628333
357340.3625488281	6.612904264081033	0.1461679901795867	59.43769272628333
357349.4567871094	6.616366102262271	0.1397704544500804	59.43769272628333
357358.5510253906	6.638795928811542	0.1460267207801043	59.43769272628333
357367.6452636719	6.645647483545242	0.1560157343445259	59.43769272628333
357376.7395019531	6.649758416385462	0.1460624287606826	59.43769272628333
357385.8337402344	6.639805631614403	0.1342828104744278	59.43769272628333
357394.9279785156	6.622496440708213	0.1105123345773548	63.43830665978317
357404.0222167969	6.606918168892642	0.08457440833676982	63.43830665978317
357413.1164550781	6.602951479309974	0.07418636020375224	63.43830665978317
357422.2106933594	6.577853152495999	0.05315642030752166	63.43830665978317
357431.3049316406	6.570929476133523	0.03310423767216266	63.43830665978317
357440.3991699219	6.571578570792505	0.03103631917458655	63.43830665978317
357449.4934082031	6.580665896018255	0.03700622203334179	63.43830665978317
357458.5876464844	6.590618680789314	0.04178719087766147	63.43830665978317
357467.6818847656	6.597181749007911	0.04875201841730313	63.43830665978317
357476.7761230469	6.603167844196301	0.04795181299274144	63.43830665978317
357485.8703613281	6.58795018052461	0.03924656226442613	63.43830665978317
357494.9645996094	6.583622882798062	0.04298210869489184	63.43830665978317
357504.0588378906	6.567467637952285	0.05686730734180171	63.43830665978317
357513.1530761719	6.561553664392671	0.03673199793088721	63.43830665978317
357522.2473144531	6.560904569733688	0.03366538122384327	63.43830665978317
357531.3415527344	6.565736718861666	0.04569330717459409	63.43830665978317
357540.4357910156	6.57475192245864	0.04295492195888842	63.43830665978317
357549.5300292969	6.579007098556412	0.05864561316432645	63.43830665978317
357558.6242675781	6.569919773330662	0.04645888211479857	63.43830665978317
357567.7185058594	6.567828246096164	0.04186725214053924	63.43830665978317
357576.8127441406	6.567611881209837	0.04254496610681521	63.43830665978317
357585.9069824219	6.559534258786948	0.03556900127606625	63.43830665978317
357595.0012207031	6.555495447575503	0.03158763049108572	63.43830665978317
357604.0954589844	6.558596677612862	0.02938315629955295	63.43830665978317
357613.1896972656	6.558957285756741	0.03662667186047322	63.43830665978317
357622.2839355469	6.569487043558008	0.03721221407270881	63.43830665978317
357631.3781738281	6.571290084277402	0.04786366954257801	63.43830665978317
357640.4724121094	6.576050111776604	0.04571525406192636	63.43830665978317
357649.5666503906	6.571650692421281	0.04545872878595193	63.43830665978317
357658.6608886719	6.571290084277402	0.04173366575480801	63.43830665978317
357667.7551269531	6.571217962648627	0.0387283811805928	63.43830665978317
357676.8493652344	6.571145841019851	0.04138842171528967	63.43830665978317
357685.9436035156	6.55931789390062	0.02952033730980977	63.43830665978317
357695.0378417969	6.552826947310799	0.02215951718485065	63.43830665978317
357704.1320800781	6.506380618379191	-0.006578773708751658	63.43830665978317
357713.2263183594	6.402886081085931	-0.08490418564947636	63.43830665978317
357722.3205566406	6.271264108570112	-0.2010711497294942	63.43830665978317
357731.4147949219	6.149162191052699	-0.3036116262346147	63.43830665978317
357740.5090332031	6.308550990647196	-0.2403244908415372	63.43830665978317
357749.6032714844	6.921224227097539	0.2320768898805436	63.43830665978317
357758.6975097656	7.115231408504416	0.6589276153344558	63.43830665978317
357767.7917480469	6.856314761199327	0.4381091001841764	63.43830665978317
357776.8859863281	6.741136520044389	0.1685296967939572	63.43830665978317
357785.9802246094	6.636488036690717	0.1243633883037231	63.43830665978317
357795.0744628906	6.582252571851322	0.005255904898055467	63.43830665978317
357804.1687011719	6.554341501515091	-0.0129351333643579	63.43830665978317
357813.2629394531	6.529098931443564	-0.0312051977041389	63.43830665978317
357822.3571777344	6.514313997544527	-0.06265180080437141	63.43830665978317
357831.4514160156	6.518497052013523	-0.04236651258812625	63.43830665978317
357840.5456542969	6.515179457089837	-0.05308485582143802	63.43830665978317
357849.6398925781	6.507606686068379	-0.043583297116238	63.43830665978317
357858.7341308594	6.503279388341832	-0.05548457493169225	63.43830665978317
357867.8283691406	6.498591482471404	-0.0491088112650258	63.43830665978317
357876.9226074219	6.494119941487305	-0.05124495246001197	63.43830665978317
357886.0168457031	6.490802346563619	-0.05260821376436993	63.43830665978317
357895.1110839844	6.477676210126425	-0.05134969755411199	63.43830665978317
357904.2053222656	6.473565277286205	-0.06293512333593865	63.43830665978317
357913.2995605469	6.471906479824362	-0.05071510448235346	63.43830665978317
357922.3937988281	6.459501559674926	-0.05904133599270008	63.43830665978317
357931.4880371094	6.441759638996082	-0.06618565699767834	63.43830665978317
357940.5822753906	6.399929094306123	-0.09212769709678062	63.43830665978317
357949.6765136719	6.342448156171818	-0.1352785572031277	63.43830665978317
357958.7707519531	6.434186867974623	-0.09983903127414054	63.43830665978317
357967.8649902344	6.412983109114541	-0.03200801957900522	63.43830665978317
357976.9592285156	6.434980205891157	-0.05295677751423378	63.43830665978317
357986.0534667969	6.482291994368076	-0.004307958604719183	63.43830665978317
357995.1477050781	6.553548163598557	0.07629058403927432	63.43830665978317
358004.2419433594	6.60713453377897	0.1328420193964256	63.43830665978317
358013.3361816406	6.812681175789974	0.3013649911234436	63.43830665978317
358022.4304199219	7.080396661805709	0.517543861927354	63.43830665978317
358031.5246582031	7.155042547588653	0.6511497328482148	63.43830665978317
358040.6188964844	7.199830079058419	0.6086987787050615	63.43830665978317
358049.7131347656	7.198171281596576	0.5843371943277835	63.43830665978317
358058.8073730469	7.218293216025021	0.5475198211653846	63.43830665978317
358067.9016113281	7.150066155203123	0.4582535020613129	63.43830665978317
358076.9958496094	7.005462289507663	0.3152486822423852	63.43830665978317
358086.0900878906	6.918699970090386	0.1399970802815211	63.43830665978317
358095.1843261719	6.694545947855229	0.003636002288112443	63.43830665978317
358104.2785644531	6.519218268301281	-0.2413054025451242	63.43830665978317
358113.3728027344	6.552754825682023	-0.2635088377367211	63.43830665978317
358122.4670410156	6.588959883327471	-0.1675447383363161	63.43830665978317
358131.5612792969	6.624660089571488	-0.1579062022102837	63.43830665978317
358140.6555175781	6.624227359798833	-0.1143329265965709	63.43830665978317
358149.7497558594	6.646152334946673	-0.1194235385018957	63.43830665978317
358158.8439941406	6.598552059954651	-0.1171161097423939	63.43830665978317
358167.9382324219	6.593936275713	-0.1515358643094103	63.43830665978317
358177.0324707031	6.564582772801254	-0.1530214020972216	63.43830665978317
358186.1267089844	6.553620285227333	-0.1601703470821939	63.43830665978317
358195.2209472656	6.543162649054843	-0.1707694272551456	63.43830665978317
358204.3151855469	6.484888373004004	-0.1785320756877723	63.43830665978317
358213.4094238281	6.441903882253634	-0.2405999982905164	63.43830665978317
358222.5036621094	6.464189465545353	-0.2094873337845582	63.43830665978317
358231.5979003906	6.498375117585077	-0.1611980314231334	69.44825150123631
358240.6921386719	6.487412630011157	-0.1398757401082318	69.44825150123631
358249.7863769531	6.487268386753605	-0.1393559198262055	69.44825150123631
358258.8806152344	6.500538766448352	-0.1197665987231824	69.44825150123631
358267.9748535156	6.501187861107334	-0.09355422347963685	69.44825150123631
358277.0690917969	6.499817550160594	-0.09701328009177368	69.44825150123631
358286.1633300781	6.474430736831515	-0.09129501709662795	69.44825150123631
358295.2575683594	6.450053626305298	-0.1166489116200513	69.44825150123631
358304.3518066406	6.440461449678118	-0.1138867118146721	69.44825150123631
358313.4460449219	6.432744435399108	-0.1069750245533382	69.44825150123631
358322.5402832031	6.403967905517567	-0.1154972537831406	69.44825150123631
358331.6345214844	6.373099848401528	-0.1304113853706699	69.44825150123631
358340.7287597656	6.346919697155917	-0.1452521306384707	69.44825150123631
358349.8229980469	6.306387341783922	-0.1542561011500671	69.44825150123631
358358.9172363281	6.283452663833221	-0.172830507022654	69.44825150123631
358368.0114746094	6.271552595085216	-0.1590158561420546	69.44825150123631
358377.1057128906	6.32117227568296	-0.1177031226267837	69.44825150123631
358386.1999511719	6.378581092188489	-0.03614776375231055	69.44825150123631
358395.2941894531	6.449404531646316	0.03868657697995379	69.44825150123631
358404.3884277344	6.503423631599383	0.1017034586190641	69.44825150123631
358413.4826660156	6.528882566557237	0.1423129675640634	69.44825150123631
358422.5769042969	6.534580175230524	0.1419508017532132	69.44825150123631
358431.6711425781	6.562563367195532	0.1612110801823228	69.44825150123631
358440.7653808594	6.543306892312395	0.158872380672857	69.44825150123631
358449.8596191406	6.519723119702712	0.1256626359449086	69.44825150123631
358458.9538574219	6.559750623673275	0.1344652173349346	69.44825150123631
358468.0480957031	6.563068218596962	0.1653723001933581	69.44825150123631
358477.1423339844	6.540710513676467	0.1354495267609134	69.44825150123631
358486.2365722656	6.603095722567526	0.1517220608683555	69.44825150123631
358495.3308105469	6.666562755890221	0.2499003141977032	69.44825150123631
358504.4250488281	6.658917863239988	0.2739915087040322	69.44825150123631
358513.5192871094	6.649902659643014	0.2350076782698341	69.44825150123631
358522.6135253906	6.64088745604604	0.2209363361466484	69.44825150123631
358531.7077636719	6.630141333358448	0.205831273089268	69.44825150123631
358540.8020019531	6.60626907423366	0.173483507940617	69.44825150123631
358549.8962402344	6.538546864813193	0.1254715386006019	69.44825150123631
358558.9904785156	6.439019017102602	0.02825706829463294	69.44825150123631
358568.0847167969	6.481210169936439	0.01287616937519367	69.44825150123631
358577.1789550781	7.023132088557731	0.3558693831822212	69.44825150123631
358586.2731933594	7.405520964326974	0.8582984326783107	69.44825150123631
358595.3674316406	7.117972030397896	0.7465390146959352	69.44825150123631
358604.4616699219	6.831072191127801	0.2788124074777058	69.44825150123631
358613.5559082031	6.666995485662876	0.1138651647724989	69.44825150123631
358622.6501464844	6.552682704053248	-0.02182211167933342	69.44825150123631
358631.7443847656	6.467002209067609	-0.1170649380320333	69.44825150123631
358640.8386230469	6.436783246610552	-0.1388739381046437	69.44825150123631
358649.9328613281	6.416156460780676	-0.1592828242671078	69.44825150123631
358659.0270996094	6.397116350783867	-0.1462749526519392	69.44825150123631
358668.1213378906	6.38456718737688	-0.1617902258465721	69.44825150123631
358677.2155761719	6.398775148245711	-0.1296048393544277	69.44825150123631
358686.3098144531	6.471473750051707	-0.07282927680498005	69.44825150123631
358695.4040527344	6.563140340225738	0.03018902982091188	69.44825150123631
358704.4982910156	6.564005799771048	0.07383544021568314	69.44825150123631
358713.5925292969	6.55931789390062	0.0462898475787354	69.44825150123631
358722.6867675781	6.562058515794101	0.05833192818380979	69.44825150123631
358731.7810058594	6.532560769624802	0.03926888995491339	69.44825150123631
358740.8752441406	6.492316900767911	0.001872128211036688	69.44825150123631
358749.9694824219	6.515035213832285	0.0001669743921643291	69.44825150123631
358759.0637207031	6.519650998073936	0.03053379055952429	69.44825150123631
358768.1579589844	6.516477646407801	0.02517252323229305	69.44825150123631
358777.2521972656	6.539340202729727	0.03641100468957985	69.44825150123631
358786.3464355469	6.541359608335449	0.05948892993068723	69.44825150123631
358795.4406738281	6.54561478443322	0.05045562296751141	69.44825150123631
358804.5349121094	6.54424447348648	0.05853051551028914	69.44825150123631
358813.6291503906	6.536383215949919	0.04991353925477372	69.44825150123631
358822.7233886719	6.526935282580291	0.04032551175173942	69.44825150123631
358831.8176269531	6.512799443340236	0.03185582596958035	69.44825150123631
358840.9118652344	6.510924280992065	0.02270320721367882	69.44825150123631
358850.0061035156	6.511212767507169	0.02976219262575753	69.44825150123631
358859.1003417969	6.518497052013523	0.03306432420918737	69.44825150123631
358868.1945800781	6.517054619438008	0.03912234229099917	69.44825150123631
358877.2888183594	6.503495753228159	0.03012444592231232	69.44825150123631
358886.3830566406	6.481642899709094	0.01140132403528057	69.44825150123631
358895.4772949219	6.472844060998447	0.001154277319135425	69.44825150123631
358904.5715332031	6.446086936722629	-0.01171971548227685	69.44825150123631
358913.6657714844	6.434908084262381	-0.0266708375723381	69.44825150123631
358922.7600097656	6.430364421649506	-0.0252797880375796	69.44825150123631
358931.8542480469	6.419401934075586	-0.02354866829728175	69.44825150123631
358940.9484863281	6.405410338093083	-0.03411786145219777	69.44825150123631
358950.0427246094	6.371008321167031	-0.0479851123373317	69.44825150123631
358959.1369628906	6.354203981662272	-0.06860344923070497	69.44825150123631
358968.2312011719	6.312445558601088	-0.0820483699615949	69.44825150123631
358977.3254394531	6.295352732581226	-0.1014681841320983	69.44825150123631
358986.4196777344	6.294343029778365	-0.09210371795694908	69.44825150123631
358995.5139160156	6.316989221213964	-0.05943321526008374	69.44825150123631
359004.6081542969	6.326004424810938	-0.03643058692770709	69.44825150123631
359013.7023925781	6.306603706670249	-0.0096168011408473	69.44825150123631
359022.7966308594	6.301483071027168	0.002970260960127422	69.44825150123631
359031.8908691406	6.263258607776	-0.008319495771456792	69.44825150123631
359040.9851074219	6.234986929295889	-0.03662903672465497	69.44825150123631
359050.0793457031	6.239097862136109	-0.0253068863081647	69.44825150123631
359059.1735839844	6.26051798588252	0.007457951095846486	69.44825150123631
359068.2678222656	6.281505379856275	0.03905706713518169	69.44825150123631
359077.3620605469	6.298381840989809	0.06894517610388773	69.44825150123631
359086.4562988281	6.309416450192505	0.08499102380816666	69.44825150123631
359095.5505371094	6.335957209581997	0.1123648438008577	69.44825150123631
359104.6447753906	6.387668417414239	0.1550489222059064	69.44825150123631
359113.7390136719	6.428777745816439	0.2053582859289252	69.44825150123631
359122.8332519531	6.464838560204335	0.2321419102609752	69.44825150123631
359131.9274902344	6.484095035087471	0.250731873005684	69.44825150123631
359141.0217285156	6.5072460779245	0.2600361541515182	69.44825150123631
359150.1159667969	6.508327902356137	0.2585353012457435	69.44825150123631
359159.2102050781	6.494624792888736	0.2391618795384381	69.44825150123631
359168.3044433594	6.537681405267883	0.2395089494875834	69.44825150123631
359177.3986816406	6.528305593527031	0.2581352975461989	69.44825150123631
359186.4929199219	6.533498350798888	0.225863986300566	69.44825150123631
359195.5871582031	6.551673001250387	0.2321320581029214	69.44825150123631
359204.6813964844	6.557010001779795	0.2362030636987218	69.44825150123631
359213.7756347656	6.560543961589809	0.2142603516450355	69.44825150123631
359222.8698730469	6.56191427253655	0.2131961856240374	69.44825150123631
359231.9641113281	6.55931789390062	0.1908028140140817	69.44825150123631
359241.0583496094	6.555856055719382	0.1792132438610298	69.44825150123631
359250.1525878906	6.54648024397853	0.1584548834921819	69.44825150123631
359259.2468261719	6.537897770154211	0.1372101015551562	69.44825150123631
359268.3410644531	6.535661999662161	0.1245103362243741	69.44825150123631
359277.4353027344	6.55196148776549	0.1210882673474692	69.44825150123631
359286.5295410156	6.557370609923674	0.1273357821672962	69.44825150123631
359295.6237792969	6.555639690833055	0.1116826708561723	69.44825150123631
359304.7180175781	6.547417825152615	0.0977954486074743	69.44825150123631
359313.8122558594	6.500178158304473	0.05801670178925324	69.44825150123631
359322.9064941406	6.392428444913441	-0.03394863106412674	69.44825150123631
359332.0007324219	6.251647025543098	-0.1631734871807528	69.44825150123631
359341.0949707031	6.107908619392946	-0.2921466765159061	69.44825150123631
359350.1892089844	6.224168684979521	-0.2671212607137015	69.44825150123631
359359.2834472656	6.851698976957676	0.1873421772188501	69.44825150123631
359368.3776855469	6.995509504736603	0.615939074488119	69.44825150123631
359377.4719238281	6.724187937282078	0.3653080408970342	69.44825150123631
359386.5661621094	6.603312087453853	0.09538598819668596	69.44825150123631
359395.6604003906	6.522535863224968	0.07516101532385829	69.44825150123631
359404.7546386719	6.482508359254403	-0.02740398191766793	69.44825150123631
359413.8488769531	6.470464047248846	-0.02147169314131974	69.44825150123631
359422.9431152344	6.472988304255999	-0.02531569078458283	69.44825150123631
359432.0373535156	6.464550073689232	-0.03259711520341418	69.44825150123631
359441.1315917969	6.467795546984142	-0.02138107760736979	69.44825150123631
359450.2258300781	6.470824655392725	-0.03019497895218397	69.44825150123631
359459.3200683594	6.474791344975394	-0.008675925839306835	69.44825150123631
359468.4143066406	6.480056223876026	-0.01830247885918374	69.44825150123631
359477.5085449219	6.477964696641529	-0.003700073068007403	69.44825150123631
359486.6027832031	6.469021614673331	-0.01812013388816271	69.44825150123631
359495.6970214844	6.44933241001754	-0.02878500688362295	69.44825150123631
359504.7912597656	6.428921989073991	-0.04602264045812508	69.44825150123631
359513.8854980469	6.420123150363344	-0.05952171181617257	69.44825150123631
359522.9797363281	6.410963703508819	-0.0536250969732186	69.44825150123631
359532.0739746094	6.404905486691653	-0.06429783686276022	69.44825150123631
359541.1682128906	6.413632203773523	-0.04792109334594992	69.44825150123631
359550.2624511719	6.398703026616935	-0.05014546470686637	69.44825150123631
359559.3566894531	6.381610200597073	-0.06158046151007923	69.44825150123631
359568.4509277344	6.374181672833165	-0.06777192759970016	69.44825150123631
359577.5451660156	6.360334320108214	-0.06697343020677704	69.44825150123631
359586.6394042969	6.356367630525545	-0.07030446303477571	69.44825150123631
359595.7336425781	6.352328819314101	-0.06388849962581381	69.44825150123631
359604.8278808594	6.343385737345903	-0.0607836489636378	69.44825150123631
359613.9221191406	6.353122157230635	-0.0559621619958494	69.44825150123631
359623.0163574219	6.372306510484995	-0.02521326698561643	69.44825150123631
359632.1105957031	6.392356323284665	-0.003995869296339886	69.44825150123631
359641.2048339844	6.435845665436466	0.03418922180414728	69.44825150123631
359650.2990722656	6.449260288388764	0.06426398294049129	69.44825150123631
359659.3933105469	6.468805249787003	0.07196743858448297	69.44825150123631
359668.4875488281	6.485032616261556	0.08912915421756526	69.44825150123631
359677.5817871094	6.492244779139135	0.09642401581800282	69.44825150123631
359686.6760253906	6.49130719796505	0.09008040565093051	69.44825150123631
359695.7702636719	6.497870266183647	0.0900800112226722	69.44825150123631
359704.8645019531	6.503279388341832	0.09115984217378056	69.44825150123631
359713.9587402344	6.501043617849782	0.08716578765881208	69.44825150123631
359723.0529785156	6.505947888606536	0.08214008469562831	69.44825150123631
359732.1472167969	6.508183659098585	0.08205547769642088	69.44825150123631
359741.2414550781	6.504793942546123	0.07594311897695286	69.44825150123631
359750.3356933594	6.499817550160594	0.06431671667549876	69.44825150123631
359759.4299316406	6.493975698229754	0.05693344262759079	69.44825150123631
359768.5241699219	6.48993688701831	0.0464300012455266	69.44825150123631
359777.6184082031	6.475584682891928	0.03569606609787925	69.44825150123631
359786.7126464844	6.463612492515146	0.01790483294591733	69.44825150123631
359795.8068847656	6.456688816152671	0.009087662097497617	76.71609177462152
359804.9011230469	6.455751234978585	0.006994380135631749	76.71609177462152
359813.9953613281	6.454092437516742	0.004653858186015648	76.71609177462152
359823.0895996094	6.455751234978585	0.006192843918766343	76.71609177462152
359832.1838378906	6.46303551948494	0.009388538252374672	76.71609177462152
359841.2780761719	6.463396127628819	0.01474878713710078	76.71609177462152
359850.3723144531	6.470680412135174	0.01469558554033043	76.71609177462152
359859.4665527344	6.472988304255999	0.020438286892799	76.71609177462152
359868.5607910156	6.469598587703537	0.01677508696257521	76.71609177462152
359877.6550292969	6.466280992779851	0.01007620843695766	76.71609177462152
359886.7492675781	6.469237979559658	0.01153428487414248	76.71609177462152
359895.8435058594	6.461953695053303	0.006914067593004293	76.71609177462152
359904.9377441406	6.453587586115312	-0.00211447350296345	76.71609177462152
359914.0319824219	6.448466950472231	-0.009632440621544881	76.71609177462152
359923.1262207031	6.457410032440428	-0.004470077005214383	76.71609177462152
359932.2204589844	6.462602789712285	0.003478200358697855	76.71609177462152
359941.3146972656	6.467579182097815	0.007009713704552947	76.71609177462152
359950.4089355469	6.471041020279053	0.009638498270810782	76.71609177462152
359959.5031738281	6.4753683180056	0.01252146822656144	76.71609177462152
359968.5974121094	6.480993805050112	0.0155793127429677	76.71609177462152
359977.6916503906	6.487845359783812	0.02016872828642231	76.71609177462152
359986.7858886719	6.485898075806865	0.01993960336253602	76.71609177462152
359995.8801269531	6.486475048837072	0.01484392420913033	76.71609177462152
360004.9743652344	6.479911980618475	0.01091175615833689	76.71609177462152
360014.0686035156	6.477531966868874	0.003156414775495846	76.71609177462152
360023.1628417969	6.474214371945188	2.613122569978027e-05	76.71609177462152
360032.2570800781	6.434042624717072	-0.023598216588455	76.71609177462152
360041.3513183594	6.220851090055835	-0.1617140277090096	76.71609177462152
360050.4455566406	6.098749172538421	-0.3154621367571214	76.71609177462152
360059.5397949219	6.263691337548655	-0.2004835435240935	76.71609177462152
360068.6340332031	6.926921835770826	0.2921384353902603	76.71609177462152
360077.7282714844	7.328711429680757	0.842483693604408	76.71609177462152
360086.8225097656	7.015198709392394	0.7177543930784138	76.71609177462152
360095.9167480469	6.755560845799548	0.2420122774490786	76.71609177462152
360105.0109863281	6.626391008662107	0.1275068277592996	76.71609177462152
360114.1052246094	6.472988304255999	-0.02229774549098226	76.71609177462152
360123.1994628906	6.451135450736935	-0.1186469135676667	76.71609177462152
360132.2937011719	6.430436543278282	-0.07936017425803812	76.71609177462152
360141.3879394531	6.416661312182106	-0.1207388131694413	76.71609177462152
360150.4821777344	6.4160843391519	-0.09806013209586854	76.71609177462152
360159.5764160156	6.424089839946013	-0.09134297892047205	76.71609177462152
360168.6706542969	6.428705624187663	-0.07483310606047119	76.71609177462152
360177.7648925781	6.437792949413414	-0.05897525383829479	76.71609177462152
360186.8591308594	6.442841463427719	-0.05016522953820499	76.71609177462152
360195.9533691406	6.444211774374459	-0.03567564462648969	76.71609177462152
360205.0476074219	6.441182665965876	-0.03946726816399189	76.71609177462152
360214.1418457031	6.435485057292588	-0.03188483685942609	76.71609177462152
360223.2360839844	6.423729231802134	-0.04166917471306939	76.71609177462152
360232.3303222656	6.406420040895944	-0.04632180412955045	76.71609177462152
360241.4245605469	6.366608901811707	-0.07152072171073631	76.71609177462152
360250.5187988281	6.348145764845105	-0.09215377837506433	76.71609177462152
360259.6130371094	6.335091750036687	-0.08991051595347224	76.71609177462152
360268.7072753906	6.324994722008077	-0.09018906449636968	76.71609177462152
360277.8015136719	6.318648018675807	-0.08518398796157581	76.71609177462152
360286.8957519531	6.317349829357843	-0.07570096046348747	76.71609177462152
360295.9899902344	6.319585599849892	-0.06235316787715774	76.71609177462152
360305.0842285156	6.331774155113001	-0.04374056350531304	76.71609177462152
360314.1784667969	6.372522875371322	-0.00437899566465742	76.71609177462152
360323.2727050781	6.39055328256527	0.03403684695700611	76.71609177462152
360332.3669433594	6.405049729949204	0.04815371072076756	76.71609177462152
360341.4611816406	6.419041325931707	0.06417615822552678	76.71609177462152
360350.5554199219	6.430508664907058	0.08049846067489323	76.71609177462152
360359.6496582031	6.441615395738531	0.08784814466570004	76.71609177462152
360368.7438964844	6.44933241001754	0.09910633854689357	76.71609177462152
360377.8381347656	6.457914883841859	0.1029613942452186	76.71609177462152
360386.9323730469	6.451207572365711	0.1020423785071779	76.71609177462152
360396.0266113281	6.445437842063647	0.09134796086337992	76.71609177462152
360405.1208496094	6.439595990132808	0.08392324588393232	76.71609177462152
360414.2150878906	6.439595990132808	0.08272771805380524	76.71609177462152
360423.3093261719	6.442048125511185	0.0810746832226695	76.71609177462152
360432.4035644531	6.443129949942822	0.08485014951703937	76.71609177462152
360441.4978027344	6.451712423767141	0.08532637866841125	76.71609177462152
360450.5920410156	6.47399800705886	0.1026038696748788	76.71609177462152
360459.6862792969	6.482868967398282	0.1148968369197515	84.58440887971091
360468.7805175781	6.48719626512483	0.1127608365395493	84.58440887971091
360477.8747558594	6.492461144025462	0.1133111759996905	84.58440887971091
360486.9689941406	6.491667806108929	0.1100079380585127	84.58440887971091
360496.0632324219	6.491956292624032	0.1036671538779884	84.58440887971091
360505.1574707031	6.492749630540565	0.09951477915932815	84.58440887971091
360514.2517089844	6.493038117055669	0.09590296583353714	84.58440887971091
360523.3459472656	6.49404781985853	0.09061451663586786	84.58440887971091
360532.4401855469	6.495490252434045	0.08836813133578388	84.58440887971091
360541.5344238281	6.500899374592231	0.08633477180861696	84.58440887971091
360550.6286621094	6.500827252963455	0.1039877721074789	84.58440887971091
360559.7229003906	6.498807847357732	0.1197485505324461	84.58440887971091
360568.8171386719	6.494769036146288	0.1050528017413904	84.58440887971091
360577.9113769531	6.48719626512483	0.09781451029780094	84.58440887971091
360587.0056152344	6.475079831490497	0.08800330947347805	84.58440887971091
360596.0998535156	6.466857965810057	0.07281233885266308	84.58440887971091
360605.1940917969	6.457482154069204	0.06892451838130531	84.58440887971091
360614.2883300781	6.452794248198778	0.05945006915851391	84.58440887971091
360623.3825683594	6.4616652085382	0.0654592390824747	84.58440887971091
360632.4768066406	6.473276790771102	0.07839005885590564	84.58440887971091
360641.5710449219	6.481931386224197	0.08591636544299675	84.58440887971091
360650.6652832031	6.485104737890332	0.09079909646711484	84.58440887971091
360659.7595214844	6.485609589291762	0.08818245858291172	84.58440887971091
360668.8537597656	6.481642899709094	0.08561277702105757	84.58440887971091
360677.9479980469	6.48308533228461	0.08114502864574158	84.58440887971091
360687.0422363281	6.480561075277457	0.08087189777591858	84.58440887971091
360696.1364746094	6.478036818270304	0.07564761045261695	84.58440887971091
360705.2307128906	6.474935588232945	0.07134096629404638	84.58440887971091
360714.3249511719	6.47897439944439	0.07217142478319444	84.58440887971091
360723.4191894531	6.480633196906233	0.07353200207433469	84.58440887971091
360732.5134277344	6.471473750051707	0.0686151326458781	84.58440887971091
360741.6076660156	6.419978907105793	0.03264230606390653	84.58440887971091
360750.7019042969	6.320595302652754	-0.04674778316312617	84.58440887971091
360759.7961425781	6.133511797608352	-0.1885305089619051	84.58440887971091
360768.8903808594	6.095143091099631	-0.2817811671769254	84.58440887971091
360777.9846191406	6.385288403664638	-0.08187860730061031	84.58440887971091
360787.0788574219	7.293588196466946	0.598099477576157	84.58440887971091
360796.1730957031	6.899371373578474	0.8301120029352482	84.58440887971091
360805.2673339844	6.691661082704197	0.2035975095247035	84.58440887971091
360814.3615722656	6.570208259845765	0.1244836201791065	84.58440887971091
360823.4558105469	6.509914578189204	0.1133573625660784	84.58440887971091
360832.5500488281	6.488133846298915	-0.055173030166058	84.58440887971091
360841.6442871094	6.473276790771102	0.07497032157035824	84.58440887971091
360850.7385253906	6.454597288918173	-0.05858690268046693	84.58440887971091
360859.8327636719	6.44522147717732	0.005036524209601094	84.58440887971091
360868.9270019531	6.428056529528681	-0.03360021544027794	84.58440887971091
360878.0212402344	6.415795852636797	-0.05498518351248816	84.58440887971091
360887.1154785156	6.406924892297375	-0.02008484594179337	84.58440887971091
360896.2097167969	6.401371526881639	-0.07736511861228004	84.58440887971091
360905.3039550781	6.394592093776715	-0.01477845664921605	84.58440887971091
360914.3981933594	6.399063634760814	-0.06928075161593603	84.58440887971091
360923.4924316406	6.403967905517567	-0.007954917528972748	84.58440887971091
360932.5866699219	6.414930393091487	-0.02973916422662045	84.58440887971091
360941.6809082031	6.421926191082739	0.0003675412201009222	84.58440887971091
360950.7751464844	6.41471402820516	0.001199429686895111	84.58440887971091
360959.8693847656	6.397116350783867	-0.02505430862819941	84.58440887971091
360968.9636230469	6.368556185788654	-0.02100390919359933	84.58440887971091
360978.0578613281	6.336534182612203	-0.07572420343054837	84.58440887971091
360987.1520996094	6.290159975309369	-0.07592847493306858	84.58440887971091
360996.2463378906	6.283236298946894	-0.1189834690673828	84.58440887971091
361005.3405761719	6.287707839930993	-0.07678784415274237	84.58440887971091
361014.4348144531	6.310498274624142	-0.06573703502346268	84.58440887971091
361023.5290527344	6.349155467647966	-0.01822401114664636	84.58440887971091
361032.6232910156	6.388101147186894	0.03092329860306688	84.58440887971091
361041.7175292969	6.418175866386398	0.05528053199035686	84.58440887971091
361050.8117675781	6.454597288918173	0.09882337605117858	84.58440887971091
361059.9060058594	6.465199168348214	0.1041047413117649	84.58440887971091
361069.0002441406	6.465487654863317	0.1122610121894682	84.58440887971091
361078.0944824219	6.468444641643124	0.09591280135765455	84.58440887971091
361087.1887207031	6.471906479824362	0.105636629094568	84.58440887971091
361096.2829589844	6.478541669671735	0.09776052632937257	84.58440887971091
361105.3771972656	6.485753832549314	0.1227061860671399	84.58440887971091
361114.4714355469	6.491523562851377	0.1469508177084241	84.58440887971091
361123.5656738281	6.499961793418145	0.1368182237790015	84.58440887971091
361132.6599121094	6.503423631599383	0.1439826997028021	84.58440887971091
361141.7541503906	6.500971496221006	0.1345402952776783	83.51372015971455
361150.8483886719	6.494119941487305	0.1251491265883852	83.51372015971455
361159.9426269531	6.492893873798117	0.1156960019260279	83.51372015971455
361169.0368652344	6.487484751639933	0.1099223545654664	83.51372015971455
361178.1311035156	6.48308533228461	0.09978496600425274	83.51372015971455
361187.2253417969	6.478181061527856	0.09246358837731949	83.51372015971455
361196.3195800781	6.480921683421336	0.08921513327758204	83.51372015971455
361205.4138183594	6.481642899709094	0.08854119016683826	83.51372015971455
361214.5080566406	6.48582595417809	0.08850039420682541	83.51372015971455
361223.6022949219	6.488133846298915	0.0876345340875771	83.51372015971455
361232.6965332031	6.490658103306068	0.08791841792918918	83.51372015971455
361241.7907714844	6.493687211714651	0.08539006802898161	83.51372015971455
361250.8850097656	6.487628994897484	0.08176669043512316	83.51372015971455
361259.9792480469	6.483518062057264	0.07039057361642745	83.51372015971455
361269.0734863281	6.47947925084582	0.06551502383211148	83.51372015971455
361278.1677246094	6.483878670201143	0.06362630585775203	83.51372015971455
361287.2619628906	6.483157453913385	0.06348112542769029	83.51372015971455
361296.3562011719	6.48359018368604	0.06077515553626259	83.51372015971455
361305.4504394531	6.488205967927691	0.05963645434067703	83.51372015971455
361314.5446777344	6.489792643760758	0.06276515298587976	83.51372015971455
361323.6389160156	6.486114440693193	0.05561804382062639	83.51372015971455
361332.7331542969	6.491018711449947	0.05475128211053465	83.51372015971455
361341.8273925781	6.489720522131982	0.05480345538793306	83.51372015971455
361350.9216308594	6.491235076336274	0.05064554317188351	83.51372015971455
361360.0158691406	6.504649699288572	0.05671322188037622	83.51372015971455
361369.1101074219	6.508472145613689	0.06358879221056785	83.51372015971455
361378.2043457031	6.507390321182052	0.0577636778369249	83.51372015971455
361387.2985839844	6.495995103835476	0.04693458717312845	83.51372015971455
361396.3928222656	6.494264184744857	0.03730855435116514	83.51372015971455
361405.4870605469	6.490009008647085	0.03283170133899903	83.51372015971455
361414.5812988281	6.489071427473	0.02910607684333033	83.51372015971455
361423.6755371094	6.488494454442794	0.02504643618572182	83.51372015971455
361432.7697753906	6.486186562321969	0.02397781353486367	83.51372015971455
361441.8640136719	6.486475048837072	0.01903587084639095	83.51372015971455
361450.9582519531	6.483229575542161	0.01796023934733066	83.51372015971455
361460.0524902344	6.481787142966645	0.01294778725514622	83.51372015971455
361469.1467285156	6.454453045660621	-0.003120563564792271	83.51372015971455
361478.2409667969	6.38370172783157	-0.0563624305964235	83.51372015971455
361487.3352050781	6.250493079482685	-0.1618353727609198	83.51372015971455
361496.4294433594	6.084469090040814	-0.3009216951350056	83.51372015971455
361505.5236816406	6.145411866356358	-0.319167621833842	83.51372015971455
361514.6179199219	6.705075705656494	0.08154890782998137	83.51372015971455
361523.7121582031	7.115231408504416	0.6193757064684889	83.51372015971455
361532.8063964844	6.783255551249451	0.5081222735998747	83.51372015971455
361541.9006347656	6.624371603056384	0.09999770085809544	83.51372015971455
361550.9948730469	6.520372214361694	0.05980115805506031	83.51372015971455
361560.0891113281	6.486547170465848	-0.01510549401584588	83.51372015971455
361569.1833496094	6.468877371415779	-0.05470993116855582	83.51372015971455
361578.2775878906	6.460727627364115	-0.02265668871479715	83.51372015971455
361587.3718261719	6.463324006000043	-0.06789787272725273	83.51372015971455
361596.4660644531	6.455967599864913	-0.02771412336325514	83.51372015971455
361605.5603027344	6.446303301608957	-0.06438011259456888	83.51372015971455
361614.6545410156	6.441687517367306	-0.05463547009399889	83.51372015971455
361623.7487792969	6.436062030322794	-0.0557881265678069	83.51372015971455
361632.8430175781	6.42430620483234	-0.07203189534605414	83.51372015971455
361641.9372558594	6.425099542748874	-0.05706888870297968	83.51372015971455
361651.0314941406	6.425315907635201	-0.05100267540338788	83.51372015971455
361660.1257324219	6.423729231802134	-0.006503663765920521	83.51372015971455
361669.2199707031	6.411107946766371	-0.03431605978634637	83.51372015971455
361678.3142089844	6.397621202185298	-0.02884300118266305	83.51372015971455
361687.4084472656	6.376201078438888	-0.0436345118468775	83.51372015971455
361696.5026855469	6.355934900752891	-0.05864744632747398	83.51372015971455
361705.5969238281	6.338697831475477	-0.0603294440824415	83.51372015971455
361714.6911621094	6.317926802388049	-0.07621319646758062	83.51372015971455
361723.7854003906	6.283524785461997	-0.08325308104034937	83.51372015971455
361732.8796386719	6.285399947810167	-0.09537048308080839	83.51372015971455
361741.9738769531	6.299752151936549	-0.05658165138366676	83.51372015971455
361751.0681152344	6.323480167803785	-0.03132082991727226	83.51372015971455
361760.1623535156	6.354997319578805	0.009087282264263091	83.51372015971455
361769.2565917969	6.385216282035862	0.04793590975903689	83.51372015971455
361778.3508300781	6.416156460780676	0.07753904414706486	83.51372015971455
361787.4450683594	6.439019017102602	0.1090242194628308	83.51372015971455
361796.5393066406	6.462314303197182	0.1242563214263147	83.51372015971455
361805.6335449219	6.46527128997699	0.1377056661292346	83.51372015971455
361814.7277832031	6.470608290506398	0.1311290575579599	83.51372015971455
361823.8220214844	6.474647101717842	0.1352399204693158	83.51372015971455
361832.9162597656	6.475007709861721	0.1326937352899279	83.51372015971455
361842.0104980469	6.478325304785408	0.1281771214831429	83.51372015971455
361851.1047363281	6.478253183156632	0.1287572113082948	83.51372015971455
361860.1989746094	6.481931386224197	0.1229237883467753	83.51372015971455
361869.2932128906	6.483301697170937	0.1240652820832353	83.51372015971455
361878.3874511719	6.483301697170937	0.1181480578688398	83.51372015971455
361887.4816894531	6.483662305314816	0.1143379525632871	82.46979865771812
361896.5759277344	6.483662305314816	0.1106684550075086	82.46979865771812
361905.6701660156	6.476810750581116	0.1019406710274674	82.46979865771812
361914.7644042969	6.47349315565743	0.09307693033680933	82.46979865771812
361923.8586425781	6.467507060469039	0.08535072195947255	82.46979865771812
361932.9528808594	6.471690114938035	0.08249216758752961	82.46979865771812
361942.0471191406	6.473637398914981	0.08346913957678234	82.46979865771812
361951.1413574219	6.476378020808461	0.08300503724675609	82.46979865771812
361960.2355957031	6.481931386224197	0.08275050550158759	82.46979865771812
361969.3298339844	6.481138048307663	0.08332072163824922	82.46979865771812
361978.4240722656	6.483878670201143	0.07811010053000775	82.46979865771812
361987.5183105469	6.480993805050112	0.07600364177796092	82.46979865771812
361996.6125488281	6.474791344975394	0.06684911839695909	82.46979865771812
362005.7067871094	6.472916182627223	0.05887548983740914	82.46979865771812
362014.8010253906	6.476954993838668	0.06048191198565801	82.46979865771812
362023.8952636719	6.47349315565743	0.05667373436361184	82.46979865771812
362032.9895019531	6.47349315565743	0.05228529216652675	82.46979865771812
362042.0837402344	6.477892575012753	0.05220218636248344	82.46979865771812
362051.1779785156	6.47947925084582	0.05406673021830522	82.46979865771812
362060.2722167969	6.481642899709094	0.05125843377897622	82.46979865771812
362069.3664550781	6.475728926149479	0.04709286172925889	82.46979865771812
362078.4606933594	6.474070128687636	0.03947677549558526	82.46979865771812
362087.5549316406	6.466497357666178	0.03319787369488636	82.46979865771812
362096.6491699219	6.464910681833111	0.02721988740166973	82.46979865771812
362105.7434082031	6.460943992250442	0.02271544156167616	82.46979865771812
362114.8376464844	6.458203370356962	0.01983146674308738	82.46979865771812
362123.9318847656	6.458636100129617	0.01599036543968666	82.46979865771812
362133.0261230469	6.465992506264747	0.02208038713102297	82.46979865771812
362142.1203613281	6.470824655392725	0.02603009347486055	82.46979865771812
362151.2145996094	6.473348912399878	0.02774820097316395	82.46979865771812
362160.3088378906	6.476450142437237	0.02790889496212992	82.46979865771812
362169.4030761719	6.476810750581116	0.02745910840568877	82.46979865771812
362178.4973144531	6.47760408849765	0.02571426375912582	82.46979865771812
362187.5915527344	6.475656804520703	0.02221108410958383	82.46979865771812
362196.6857910156	6.465415533234541	0.0144765317562329	82.46979865771812
362205.7800292969	6.460006411076357	0.002958834687761456	82.46979865771812
362214.8742675781	6.464838560204335	0.005206501407487432	82.46979865771812
362223.9685058594	6.464333708802904	0.02587438319015154	82.46979865771812
362233.0627441406	6.467795546984142	0.04791882386381048	82.46979865771812
362242.1569824219	6.475945291035806	0.04748250094127547	82.46979865771812
362251.2512207031	6.482147751110524	0.05550586007339004	82.46979865771812
362260.3454589844	6.481210169936439	0.05983634998519149	82.46979865771812
362269.4396972656	6.481138048307663	0.05263173669392927	82.46979865771812
362278.5339355469	6.481354413193991	0.05761794883608737	82.46979865771812
362287.6281738281	6.480705318535009	0.05305145092991292	82.46979865771812
362296.7224121094	6.481498656451542	0.05454485238081414	82.46979865771812
362305.8166503906	6.477459845240098	0.05204040975470846	82.46979865771812
362314.9108886719	6.476017412664582	0.04738014638100468	82.46979865771812
362324.0051269531	6.477820453383977	0.04987594449525116	82.46979865771812
362333.0993652344	6.472771939369672	0.04647867173624712	82.46979865771812
362342.1936035156	6.467795546984142	0.04161440276172488	82.46979865771812
362351.2878417969	6.450991207479383	0.02989598320615604	82.46979865771812
362360.3820800781	6.388966606732203	-0.009965553871554244	82.46979865771812
362369.4763183594	6.26599922966948	-0.1068490633435899	82.46979865771812
362378.5705566406	6.089661847312671	-0.2486964310717901	82.46979865771812
362387.6647949219	6.106249821931103	-0.2972455913447347	82.46979865771812
362396.7590332031	7.3759510965289	0.4559287760315305	82.46979865771812
362405.8532714844	7.205022836330276	1.114254618677296	82.46979865771812
362414.9475097656	6.8355437321119	0.4020770390105882	82.46979865771812
362424.0417480469	6.652354795021391	0.1212865527869343	82.46979865771812
362433.1359863281	6.537969891782987	0.1376962017502516	82.46979865771812
362442.2302246094	6.493038117055669	-0.1181469600080126	82.46979865771812
362451.3244628906	6.47623377755091	0.03316975036633732	82.46979865771812
362460.4187011719	6.465631898120869	-0.09606232829129975	82.46979865771812
362469.5129394531	6.464333708802904	-0.03195649974202278	82.46979865771812
362478.6071777344	6.460583384106563	-0.04114602514601093	82.46979865771812
362487.7014160156	6.451712423767141	-0.07471103476476133	82.46979865771812
362496.7956542969	6.44659178812406	-0.01844166067283706	82.46979865771812
362505.8898925781	6.439091138731378	-0.09253672679030417	82.46979865771812
362514.9841308594	6.428128651157457	-0.02129882738569328	82.46979865771812
362524.0783691406	6.420411636878447	-0.09258731412913124	82.46979865771812
362533.1726074219	6.410314608849837	-0.04190878889372846	82.46979865771812
362542.2668457031	6.403246689229809	-0.07657157793874983	82.46979865771812
362551.3610839844	6.393149661201199	-0.0652491453603416	82.46979865771812
362560.4553222656	6.381538078968297	-0.06199077012474386	82.46979865771812
362569.5495605469	6.367618604614568	-0.08865226756324196	82.46979865771812
362578.6437988281	6.351535481397567	-0.06249491961698517	82.46979865771812
362587.7380371094	6.330331722537485	-0.1082822860322324	82.46979865771812
362596.8322753906	6.292179380915091	-0.09151312878389654	82.46979865771812
362605.9265136719	6.28020719053831	-0.1361551398825562	82.46979865771812
362615.0207519531	6.282226596144032	-0.09592311903580861	82.46979865771812
362624.1149902344	6.292900597202849	-0.0888682062540411	82.46979865771812
362633.2092285156	6.318143167274377	-0.0542833222498635	82.46979865771812
362642.3034667969	6.350670021852258	-0.008047968794297148	82.46979865771812
362651.3977050781	6.383629606202795	0.01871819828205968	82.46979865771812
362660.4919433594	6.416444947295779	0.06965305348064291	82.46979865771812
362669.5861816406	6.461520965280649	0.09159441309429478	82.46979865771812
362678.6804199219	6.475873169407031	0.1346315957186603	82.46979865771812
362687.7746582031	6.480272588762354	0.1179428530511869	82.46979865771812
362696.8688964844	6.486114440693193	0.1270297118129603	82.46979865771812
362705.9631347656	6.49044173841974	0.1235521421728225	82.46979865771812
362715.0573730469	6.491739927737704	0.1187469640322213	82.46979865771812
362724.1516113281	6.494119941487305	0.1189430583276144	82.46979865771812
362733.2458496094	6.504577577659796	0.1136291042410135	82.46979865771812
362742.3400878906	6.504938185803675	0.1212104597936	82.46979865771812
362751.4343261719	6.503423631599383	0.1040935138284298	82.46979865771812
362760.5285644531	6.502053320652643	0.1032633520790997	82.46979865771812
