Time Stamp	ECG LL-RA	ECG LL-RA Filtered	Heart Rate
298258.8195800781	8.283169064899573	0.06928171091144475	-1
298267.9138183594	7.917800893521416	-0.124921335440615	-1
298277.0080566406	7.776947352522297	-0.4115152293673194	-1
298286.1022949219	7.647200542354649	-0.4373341455786632	-1
298295.1965332031	7.51867979987619	-0.5129959801712363	-1
298304.2907714844	7.429032615307881	-0.5960918294526383	-1
298313.3850097656	7.33174053808934	-0.5732962908439661	-1
298322.4792480469	7.250892192231679	-0.6383982226769036	-1
298331.5734863281	7.090205203319217	-0.6564390042960054	-1
298340.6677246094	7.036402468252477	-0.7086169045968087	-1
298349.7619628906	6.966805096483839	-0.6624420940058582	-1
298358.8562011719	6.921512713612642	-0.629428811703047	-1
298367.9504394531	6.865402086425076	-0.618734920568798	-1
298377.0446777344	6.794650768596026	-0.5656861543143825	-1
298386.1389160156	6.754118413224032	-0.5726588754341817	-1
298395.2331542969	6.702623570278117	-0.4953206109996456	-1
298404.3273925781	6.630574063131102	-0.4983042785523691	-1
298413.4216308594	6.57749254435212	-0.4668048850269107	-1
298422.5158691406	6.559534258786948	-0.4069987667879074	-1
298431.6101074219	6.536455337578695	-0.3484416222694178	-1
298440.7043457031	6.522896471368846	-0.2737869389516472	-1
298449.7985839844	6.512799443340236	-0.2227106165831803	-1
298458.8928222656	6.487628994897484	-0.1482476641856166	-1
298467.9870605469	6.48633080557952	-0.1086460938273504	-1
298477.0812988281	6.48445564323135	-0.02306834335939509	-1
298486.1755371094	6.485970197435641	0.03131879528227143	-1
298495.2697753906	6.479984102247251	0.09120106779430913	-1
298504.3640136719	6.474214371945188	0.1444715360547386	-1
298513.4582519531	6.435845665436466	0.167414640867644	-1
298522.5524902344	6.405410338093083	0.1903555746874546	-1
298531.6467285156	6.371152564424582	0.2027786481180938	-1
298540.7409667969	6.366753145069259	0.2459165107600895	-1
298549.8352050781	6.365743442266398	0.2870981664915437	-1
298558.9294433594	6.370359226508048	0.3413132226919521	-1
298568.0236816406	6.38644234972505	0.3869924793804735	-1
298577.1179199219	6.393077539572423	0.440412617683438	-1
298586.2121582031	6.404905486691653	0.4782006774407973	-1
298595.3063964844	6.412189771198007	0.51608380930798	-1
298604.4006347656	6.471545871680483	0.5795623553340278	-1
298613.4948730469	6.46527128997699	0.6675641385429754	-1
298622.5891113281	6.466785844181281	0.7299391663755286	-1
298631.6833496094	6.446519666495284	0.7272229656043108	-1
298640.7775878906	6.411684919796577	0.733666425543998	-1
298649.8718261719	6.400722432222657	0.7321159613070913	-1
298658.9660644531	6.37547986215113	0.7462481915912431	-1
298668.0603027344	6.400650310593881	0.7708192725388963	-1
298677.1545410156	6.418392231272725	0.8186693924632124	-1
298686.2487792969	6.429715326990524	0.8527995377994702	-1
298695.3430175781	6.427551678127251	0.8594916224253126	-1
298704.4372558594	6.435989908694018	0.8840891167453394	-1
298713.5314941406	6.439235381988929	0.8915660518880576	-1
298722.6257324219	6.442192368768737	0.9078098198218962	-1
298731.7199707031	6.438946895473826	0.9076777228721441	-1
298740.8142089844	6.466713722552505	0.9258451014449105	-1
298749.9084472656	6.468372520014349	0.946054975137954	-1
298759.0026855469	6.47947925084582	0.9415005210042203	-1
298768.0969238281	6.481282291565215	0.9492892475481756	-1
298777.1911621094	6.475728926149479	0.9378569341411022	-1
298786.2854003906	6.485537467662986	0.9329297606499531	-1
298795.3796386719	6.475296196376824	0.9282852627877885	-1
298804.4738769531	6.490513860048516	0.9168065185883095	-1
298813.5681152344	6.486258683950744	0.9170453521687387	-1
298822.6623535156	6.488855062586673	0.9009273688521083	-1
298831.7565917969	6.466208871151075	0.8761553379113812	-1
298840.8508300781	6.451712423767141	0.8460485345996575	-1
298849.9450683594	6.453371221228984	0.8259580259197819	-1
298859.0393066406	6.44882755861611	0.820566999369345	-1
298868.1335449219	6.424450448089892	0.7847898446581963	-1
298877.2277832031	6.430580786535834	0.7647317769337029	-1
298886.3220214844	6.440749936193221	0.7665854875350864	-1
298895.4162597656	6.434042624717072	0.7506925451373355	-1
298904.5104980469	6.439595990132808	0.732780005311551	-1
298913.6047363281	6.435196570777484	0.7198645237279343	-1
298922.6989746094	6.434042624717072	0.6992533983581823	-1
298931.7932128906	6.444356017632011	0.6860915217899314	-1
298940.8874511719	6.4411105443371	0.6765455410408628	-1
298949.9816894531	6.456544572895119	0.6574462772828595	-1
298959.0759277344	6.479984102247251	0.6644195424027983	-1
298968.1701660156	6.488710819329121	0.6568646031948759	-1
298977.2644042969	6.499817550160594	0.6383969070275535	-1
298986.3586425781	6.5003945231908	0.6237169091749958	-1
298995.4528808594	6.498375117585077	0.5930309909894418	-1
299004.5471191406	6.357954306358613	0.4951541640429377	-1
299013.6413574219	6.247103362930222	0.3298193444938664	-1
299022.7355957031	6.311940707199658	0.3234259936500109	-1
299031.8298339844	6.644421415856054	0.5591744140998467	-1
299040.9240722656	7.291929399005103	1.050348222149484	-1
299050.0183105469	7.269355329198281	1.30011752362381	-1
299059.1125488281	6.903338063161143	0.8436145459111606	-1
299068.2067871094	6.656321484604059	0.461832773663016	-1
299077.3010253906	6.467723425355366	0.2930111590624204	-1
299086.3952636719	6.443418436457925	0.1333658058844305	-1
299095.4895019531	6.438081435928517	0.1761906437323487	-1
299104.5837402344	6.439668111761584	0.1322021824752502	-1
299113.6779785156	6.403535175744913	0.1059815604181846	-1
299122.7722167969	6.370719834651927	0.06406669428479876	-1
299131.8664550781	6.346414845754486	0.01026465008994051	-1
299140.9606933594	6.325499573409507	0.008219227360777286	-1
299150.0549316406	6.313599504661502	-0.03876438821950903	-1
299159.1491699219	6.323768654318888	-0.01933601172655163	-1
299168.2434082031	6.326509276212368	-0.03136464671962855	-1
299177.3376464844	6.327086249242575	-0.02999770802748021	-1
299186.4318847656	6.320090451251323	-0.04286665690940027	-1
299195.5261230469	6.307180679700456	-0.06295098222650544	-1
299204.6203613281	6.3112194909119	-0.06700921043162386	-1
299213.7145996094	6.309921301593936	-0.07669020905479834	-1
299222.8088378906	6.322975316402355	-0.06893829835346313	-1
299231.9030761719	6.300833976368186	-0.08934637598136466	-1
299240.9973144531	6.276745352357072	-0.1161733281283535	-1
299250.0915527344	6.260950715655175	-0.1467295458364397	-1
299259.1857910156	6.261311323799053	-0.1470603548931994	-1
299268.2800292969	6.251070052512891	-0.1588127229915116	-1
299277.3742675781	6.283164177318118	-0.1492275632800178	-1
299286.4685058594	6.295352732581226	-0.1243290555681945	-1
299295.5627441406	6.308406747389644	-0.1268011276733701	-1
299304.6569824219	6.340572993823647	-0.1085405484030541	-1
299313.7512207031	6.341077845225078	-0.1005319282832548	-1
299322.8454589844	6.353482765374514	-0.1118926676459544	-1
299331.9396972656	6.353843373518393	-0.1135292048820021	-1
299341.0339355469	6.352545184200428	-0.1253393591443268	-1
299350.1281738281	6.358891887532698	-0.1378130421959083	-1
299359.2224121094	6.380239889650333	-0.1267798885490543	-1
299368.3166503906	6.386081741581172	-0.1292907826723329	-1
299377.4108886719	6.385504768550965	-0.1396766380995861	-1
299386.5051269531	6.384999917149535	-0.1548434950446151	-1
299395.5993652344	6.371513172568461	-0.1723917898498365	-1
299404.6936035156	6.38593749832362	-0.1838224437884835	-1
299413.7878417969	6.390481160936495	-0.1805798830615568	-1
299422.8820800781	6.39278905305732	-0.1892493998631849	-1
299431.9763183594	6.388317512073221	-0.2059012796136216	-1
299441.0705566406	6.388461755330773	-0.2129423774324671	-1
299450.1647949219	6.375407740522355	-0.2342865106463637	-1
299459.2590332031	6.367330118099465	-0.2504227745251738	-1
299468.3532714844	6.374758645863373	-0.2592443542396546	-1
299477.4475097656	6.394231485632836	-0.2473689649872856	-1
299486.5417480469	6.391490863739356	-0.2483177916743981	-1
299495.6359863281	6.401948499911845	-0.2575569504676057	-1
299504.7302246094	6.422719528999273	-0.2442978373310784	-1
299513.8244628906	6.416877677068434	-0.2477742640586125	-1
299522.9187011719	6.435629300550139	-0.2544561551632808	-1
299532.0129394531	6.439451746875257	-0.2471273554477248	-1
299541.1071777344	6.446231179980181	-0.2541811196778597	-1
299550.2014160156	6.439812355019136	-0.2656858931685783	-1
299559.2956542969	6.453371221228984	-0.2674685496411688	-1
299568.3898925781	6.476954993838668	-0.2579176414616543	-1
299577.4841308594	6.507173956295724	-0.2352675381922605	-1
299586.5783691406	6.516766132922904	-0.2319200240835609	-1
299595.6726074219	6.491595684480153	-0.2542193435427618	-1
299604.7668457031	6.500178158304473	-0.2775636376666829	-1
299613.8610839844	6.5003945231908	-0.2730716410591089	-1
299622.9553222656	6.530324999132753	-0.2677529045262108	-1
299632.0495605469	6.547057217008736	-0.2531569735258249	-1
299641.1437988281	6.569054313785353	-0.2419379334524396	-1
299650.2380371094	6.572516151966591	-0.2484488522995687	-1
299659.3322753906	6.572155543822712	-0.2532058599798167	-1
299668.4265136719	6.583118031396632	-0.265516572715197	-1
299677.5207519531	6.521237673907003	-0.2946921575185652	-1
299686.6149902344	6.482364115996852	-0.3675881326801493	-1
299695.7092285156	6.445798450207526	-0.395471987221401	-1
299704.8034667969	6.436566881724224	-0.4101315640858754	-1
299713.8977050781	6.419762542219465	-0.4238250178981206	-1
299722.9919433594	6.392212080027114	-0.4308927265167845	-1
299732.0861816406	6.372018023969892	-0.4604273542232741	-1
299741.1804199219	6.308406747389644	-0.4797818294895995	-1
299750.2746582031	6.315474667009672	-0.5072916999268353	-1
299759.3688964844	6.344395440148764	-0.4532626069186798	-1
299768.4631347656	6.354564589806151	-0.4201966558891671	-1
299777.5573730469	6.355213684465133	-0.4182696724431037	-1
299786.6516113281	6.387163566012808	-0.3774469555099462	-1
299795.7458496094	6.363363428516797	-0.3728146922721375	-1
299804.8400878906	6.336317817725876	-0.3905303414066765	-1
299813.9343261719	6.35405973840472	-0.386526661690504	-1
299823.0285644531	6.364661617834761	-0.3439439475302708	-1
299832.1228027344	6.373821064689286	-0.3351051758134946	-1
299841.2170410156	6.364950104349864	-0.3229984485291882	-1
299850.3112792969	6.34360210223223	-0.3293515684329534	-1
299859.4055175781	6.327735343901557	-0.3428618709500688	-1
299868.4997558594	6.331918398370553	-0.3244311269485667	-1
299877.5939941406	6.308406747389644	-0.3270551281316636	-1
299886.6882324219	6.300473368224307	-0.3268262649200522	-1
299895.7824707031	6.248906403649617	-0.3438565317961804	-1
299904.8767089844	6.192651533204501	-0.382736575677626	-1
299913.9709472656	6.145483987985133	-0.4135292655905485	-1
299923.0651855469	6.314753450721915	-0.3111674390554584	-1
299932.1594238281	6.715172733685105	0.03051646388579166	-1
299941.2536621094	7.281616006090165	0.5308224870061237	-1
299950.3479003906	6.891365872784362	0.5290212716522635	-1
299959.4421386719	6.736376492545187	0.03540704078649825	-1
299968.5363769531	6.624876454457815	-0.01141239296737847	-1
299977.6306152344	6.551312393106508	-0.07502101408837997	-1
299986.7248535156	6.520155849475366	-0.1998168261066494	-1
299995.8190917969	6.501332104364885	-0.1205331017742281	-1
300004.9133300781	6.504721820917347	-0.2028747519519413	-1
300014.0075683594	6.467723425355366	-0.1568763869132157	-1
300023.1018066406	6.436206273580345	-0.2173651908256012	-1
300032.1960449219	6.379518673362575	-0.2495086305755856	-1
300041.2902832031	6.412983109114541	-0.2228434526694061	-1
300050.3845214844	6.41882496104538	-0.2118527155943387	-1
300059.4787597656	6.426469853695614	-0.1574213559164383	-1
300068.5729980469	6.42928259721787	-0.1883020491645754	-1
300077.6672363281	6.429571083732973	-0.1314696855214849	-1
300086.7614746094	6.427695921384802	-0.1581710664685113	-1
300095.8557128906	6.41334371725842	-0.1337629972593731	-1
300104.9499511719	6.412334014455559	-0.1393453032840718	-1
300114.0441894531	6.393798755860181	-0.1401860548491231	-1
300123.1384277344	6.363219185259245	-0.1397314573342146	-1
300132.2326660156	6.341510574997733	-0.1755721297932598	-1
300141.3269042969	6.341294210111405	-0.1382690221174175	-1
300150.4211425781	6.355213684465133	-0.1381247869580134	-1
300159.5153808594	6.364301009690882	-0.08791072672110913	-1
300168.6096191406	6.381393835710745	-0.07932816981649536	-1
300177.7038574219	6.411901284682904	-0.03226882589923898	-1
300186.7980957031	6.437288098011983	0.004866203187299668	-1
300195.8923339844	6.454885775433276	0.02553247506059894	-1
300204.9865722656	6.480272588762354	0.06079060790777426	-1
300214.0808105469	6.504938185803675	0.07870950321414746	-1
300223.1750488281	6.506885469780621	0.1041640046776149	-1
300232.2692871094	6.506380618379191	0.08901300660535705	-1
300241.3635253906	6.532344404738475	0.1152216742410533	-1
300250.4577636719	6.54099900019157	0.1294989755246792	-1
300259.5520019531	6.529459539587443	0.123893450552866	-1
300268.6462402344	6.515323700347389	0.107369934860515	-1
300277.7404785156	6.514674605688406	0.1017384090868464	-1
300286.8347167969	6.511284889135944	0.106148413890016	-1
300295.9289550781	6.502197563910195	0.09608346857258988	-1
300305.0231933594	6.506236375121639	0.1000125012849655	-1
300314.1174316406	6.512294591938805	0.1062084383545201	-1
300323.2116699219	6.521021309020676	0.1184396168936782	-1
300332.3059082031	6.504361212773469	0.1116028698571793	-1
300341.4001464844	6.500538766448352	0.1018010749067185	-1
300350.4943847656	6.503063023455504	0.1062176345693498	-1
300359.5886230469	6.49318236031322	0.1068406265807173	-1
300368.6828613281	6.487917481412588	0.09783082377407674	-1
300377.7770996094	6.497437536410992	0.1072127099162242	-1
300386.8713378906	6.50176483413754	0.1193971128857524	-1
300395.9655761719	6.494624792888736	0.1161572641934699	-1
300405.0598144531	6.489576278874431	0.1132917744673787	-1
300414.1540527344	6.48445564323135	0.110512115511106	-1
300423.2482910156	6.483157453913385	0.1126348559426287	-1
300432.3425292969	6.47623377755091	0.1107139061294217	-1
300441.4367675781	6.467723425355366	0.1071285692168636	-1
300450.5310058594	6.450919085850607	0.09750247691287797	-1
300459.6252441406	6.453299099600208	0.09599411749222675	-1
300468.7194824219	6.450846964221832	0.1048748260356269	-1
300477.8137207031	6.445077233919768	0.1039274237395046	-1
300486.9079589844	6.452794248198778	0.1096528413554566	-1
300496.0021972656	6.447745734184473	0.1191559565687299	-1
300505.0964355469	6.458203370356962	0.1224457079060206	-1
300514.1906738281	6.468156155128021	0.1401283368613322	-1
300523.2849121094	6.498591482471404	0.1636529929263608	-1
300532.3791503906	6.482652602511955	0.1701992212660068	-1
300541.4733886719	6.468300398385573	0.1493260774353549	-1
300550.5676269531	6.489792643760758	0.154984040707842	-1
300559.6618652344	6.495129644290167	0.1808894436634874	-1
300568.7561035156	6.49404781985853	0.1703402306919024	-1
300577.8503417969	6.484311399973798	0.1683031579331554	-1
300586.9445800781	6.461953695053303	0.1503235256607927	-1
300596.0388183594	6.463251884371267	0.1383849103597925	-1
300605.1330566406	6.466280992779851	0.1520321655582357	-1
300614.2272949219	6.481138048307663	0.1571032114745087	-1
300623.3215332031	6.564077921399823	0.2132973016834982	-1
300632.4157714844	6.51770371409699	0.2313835069583783	-1
300641.5100097656	6.542585676024637	0.189633432149898	-1
300650.6042480469	6.552754825682023	0.2222043753793251	-1
300659.6984863281	6.515540065233716	0.2015844372077459	-1
300668.7927246094	6.478253183156632	0.1378722589454954	-1
300677.8869628906	6.386947201126481	0.09397897070047542	-1
300686.9812011719	6.242054848915917	-0.04350367883470541	-1
300696.0754394531	6.442697220170167	0.01699813235976236	-1
300705.1696777344	6.972935434929781	0.4659417936688784	-1
300714.2639160156	7.338952700966919	0.9039789656294686	-1
300723.3581542969	7.068712957944031	0.7983804090875331	-1
300732.4523925781	6.78635678128681	0.3631603653871177	-1
300741.5466308594	6.649686294756687	0.1837268683800951	-1
300750.6408691406	6.465631898120869	0.04670027187884146	-1
300759.7351074219	6.440894179450773	-0.08235243948042052	-1
300768.8293457031	6.416012217523124	-0.03934247008794258	-1
300777.9235839844	6.401083040366536	-0.07107833907992259	-1
300787.0178222656	6.39278905305732	-0.07062375104301472	-1
300796.1120605469	6.405338216464307	-0.04186230362995914	-1
300805.2062988281	6.441254787594652	-0.02370326502771589	-1
300814.3005371094	6.445726328578751	0.02457645269525162	-1
300823.3947753906	6.429571083732973	-0.001965518914080072	-1
300832.4890136719	6.407501865327581	-0.005376592820598775	-1
300841.5832519531	6.394952701920594	-0.01919685425238656	-1
300850.6774902344	6.363219185259245	-0.03285763243175979	-1
300859.7717285156	6.363724036660676	-0.03563859478952474	-1
300868.8659667969	6.361271901282299	-0.02777875290979983	-1
300877.9602050781	6.329610506249727	-0.02826549015239506	-1
300887.0544433594	6.288573299476302	-0.07112294591511512	-1
300896.1486816406	6.27148047345644	-0.07302232424550889	-1
300905.2429199219	6.243641524748984	-0.08432424807433567	-1
300914.3371582031	6.229000834107499	-0.0873669151800972	-1
300923.4313964844	6.22726991501688	-0.07710502444152287	-1
300932.5256347656	6.21356680554948	-0.06722610565755435	-1
300941.6198730469	6.212989832519273	-0.06006666140088546	-1
300950.7141113281	6.224457171494624	-0.03815490208153234	-1
300959.8083496094	6.259364039822107	0.004993226690883677	-1
300968.9025878906	6.286409650613028	0.04308038032381516	-1
300977.9968261719	6.31843165378948	0.08227903360284034	-1
300987.0910644531	6.353699130260841	0.1148399200544904	-1
300996.1853027344	6.370287104879273	0.1456293997456327	-1
301005.2795410156	6.380816862680539	0.1490089203253448	-1
301014.3737792969	6.387163566012808	0.1569345989751661	-1
301023.4680175781	6.415507366121694	0.1713332913401944	-1
301032.5622558594	6.425604394150304	0.1862407066485893	-1
301041.6564941406	6.436783246610552	0.1890448530548506	-1
301050.7507324219	6.43115775956604	0.1797068139641767	-1
301059.8449707031	6.418752839416604	0.1665824488801546	-1
301068.9392089844	6.397044229155092	0.1362502984473425	-1
301078.0334472656	6.391490863739356	0.1239248980403871	-1
301087.1276855469	6.37959079499135	0.1104124832888214	-1
301096.2219238281	6.391274498853028	0.1089308339639953	-1
301105.3161621094	6.37461440260582	0.1050735744664895	-1
301114.4104003906	6.355357927722684	0.07797201036273381	-1
301123.5046386719	6.367330118099465	0.07495476925704861	-1
301132.5988769531	6.357377333328406	0.08049934806523264	-1
301141.6931152344	6.370214983250497	0.07315490371947414	-1
301150.7873535156	6.355718535866563	0.07420804495525292	-1
301159.8815917969	6.366608901811707	0.06742513202581366	-1
301168.9758300781	6.376705929840319	0.07613218161579177	-1
301178.0700683594	6.398126053586728	0.09425660245964067	-1
301187.1643066406	6.389543579762409	0.08723935426892213	-1
301196.2585449219	6.390913890709149	0.08080515830701128	-1
301205.3527832031	6.421421339681309	0.08955687295186	-1
301214.4470214844	6.412622500970662	0.1020686948403276	-1
301223.5412597656	6.381393835710745	0.06099452706553141	-1
301232.6354980469	6.390913890709149	0.04639157346610493	-1
301241.7297363281	6.374398037719493	0.05055118653205162	-1
301250.8239746094	6.322686829887251	0.007022341351555253	-1
301259.9182128906	6.346775453898365	0.009203273915448888	-1
301269.0124511719	6.386586592982602	0.05412816087990179	-1
301278.1066894531	6.399784851048572	0.07737472220063907	-1
301287.2009277344	6.423440745287031	0.08444681080907229	-1
301296.2951660156	6.435485057292588	0.1033665840889438	-1
301305.3894042969	6.474574980089066	0.1187992821436354	-1
301314.4836425781	6.52729589072417	0.161170204370332	-1
301323.5778808594	6.550014203788543	0.1883731716813884	-1
301332.6721191406	6.497942387812422	0.1444079848226615	-1
301341.7663574219	6.430580786535834	0.06735748338386334	-1
301350.8605957031	6.399424242904693	0.01332339656513836	-1
301359.9548339844	6.381177470824418	0.0008003767750998604	-1
301369.0490722656	6.373893186318062	-0.01491771282371453	-1
301378.1433105469	6.391851471883235	-0.004025837234798565	-1
301387.2375488281	6.367330118099465	-0.004527301836460132	-1
301396.3317871094	6.275879892811763	-0.07542139470303054	-1
301405.4260253906	6.183419964721199	-0.1664160653249033	-1
301414.5202636719	6.192290925060622	-0.1848823113417367	-1
301423.6145019531	7.009428979090331	0.2900370322939988	-1
301432.7087402344	7.269355329198281	0.9058691848678212	-1
301441.8029785156	6.982311246670633	0.6381742139063175	-1
301450.8972167969	6.77402398276615	0.2450613416523478	-1
301459.9914550781	6.679977378842518	0.1921157639688812	-1
301469.0856933594	6.611894561278172	0.03443945897513604	-1
301478.1799316406	6.588743518441143	0.03062999485463662	-1
301487.2741699219	6.573670098027003	-0.01452836686734085	-1
301496.3684082031	6.523545566027829	-0.05095735035394992	-1
301505.4626464844	6.504577577659796	-0.08383271497575956	-1
301514.5568847656	6.483373818799713	-0.1172317405338605	-1
301523.6511230469	6.467507060469039	-0.1086702700539691	-1
301532.7453613281	6.478036818270304	-0.1387381148971683	-1
301541.8395996094	6.515972795006371	-0.07638908634468401	-1
301550.9338378906	6.495706617320373	-0.09299806064415853	-1
301560.0280761719	6.488422332814018	-0.1029263294906187	-1
301569.1223144531	6.490153251904637	-0.106049799645793	-1
301578.2165527344	6.475945291035806	-0.1092985376138885	-1
301587.3107910156	6.48034471039113	-0.1127333219134412	-1
301596.4050292969	6.497004806638337	-0.102202706389464	-1
301605.4992675781	6.502774536940401	-0.0786678513432095	-1
301614.5935058594	6.49866360410018	-0.09544099501541657	-1
301623.6877441406	6.537753526896659	-0.06264826985406607	-1
301632.7819824219	6.55881304249919	-0.03936791845764466	-1
301641.8762207031	6.58657986957787	-0.01613488316435878	-1
301650.9704589844	6.551528757992835	-0.03294278517032229	-1
301660.0646972656	6.536815945722574	-0.06746958520606285	-1
301669.1589355469	6.532849256139905	-0.07328783767812638	-1
301678.2531738281	6.500827252963455	-0.08934349739128639	-1
301687.3474121094	6.469310101188434	-0.127971057938113	-1
301696.4416503906	6.41745465009864	-0.1623749873402295	-1
301705.5358886719	6.403246689229809	-0.1869846231620233	-1
301714.6301269531	6.386802957868929	-0.1888806479856808	-1
301723.7243652344	6.371657415826013	-0.1888316543378314	-1
301732.8186035156	6.400001215934899	-0.178317183888811	-1
301741.9128417969	6.438802652216275	-0.1167242083246356	-1
301751.0070800781	6.479839858989699	-0.06580967369511646	-1
301760.1013183594	6.50125998273611	-0.01079507964424077	-1
301769.1955566406	6.494408428002409	-0.01329757575598208	-1
301778.2897949219	6.472771939369672	-0.03297328552622469	-1
301787.3840332031	6.448466950472231	-0.04405841218304103	-1
301796.4782714844	6.448971801873661	-0.05878334211040885	-1
301805.5725097656	6.484599886488901	-0.01834491682742234	-1
301814.6667480469	6.471762236566811	-0.008178267012554207	-1
301823.7609863281	6.451496058880814	-0.02805754753424846	-1
301832.8552246094	6.43115775956604	-0.0435194886424915	-1
301841.9494628906	6.433465651686865	-0.04164062372361199	-1
301851.0437011719	6.446159058351405	-0.02490254571385346	-1
301860.1379394531	6.473132547513551	0.002652504787069252	-1
301869.2321777344	6.485393224405435	0.02653321995467789	-1
301878.3264160156	6.47349315565743	0.02326835211651684	-1
301887.4206542969	6.449548774903867	0.005062063578813948	-1
301896.5148925781	6.438946895473826	-0.008850831833997753	-1
301905.6091308594	6.441471152480979	-0.00203969032597188	-1
301914.7033691406	6.430508664907058	-0.001460146731845632	-1
301923.7976074219	6.431806854225022	-0.002546836981738656	-1
301932.8918457031	6.385216282035862	-0.01847281332798363	-1
301941.9860839844	6.414497663318833	-0.02487614042305831	-1
301951.0803222656	6.450414234449177	0.0306919665582258	-1
301960.1745605469	6.432960800285435	0.04130093541523534	-1
301969.2687988281	6.386947201126481	-0.005661867689481953	-1
301978.3630371094	6.443923287859356	0.01841793666103832	-1
301987.4572753906	6.483806548572368	0.08445003262520934	-1
301996.5515136719	6.488133846298915	0.09827165193460549	-1
302005.6457519531	6.472483452854569	0.0802749525219775	-1
302014.7399902344	6.474214371945188	0.07902904305863029	-1
302023.8342285156	6.445798450207526	0.06422292617632219	-1
302032.9284667969	6.46527128997699	0.05963906498111966	-1
302042.0227050781	6.471545871680483	0.08302045572017466	-1
302051.1169433594	6.479695615732148	0.08591198181819418	-1
302060.2111816406	6.493038117055669	0.09479709793577749	-1
302069.3054199219	6.504866064174899	0.1104456410482225	-1
302078.3996582031	6.513953389400649	0.1133286377779453	-1
302087.4938964844	6.48171502133787	0.09934051928235116	-1
302096.5881347656	6.304440057806976	-0.01969674753611231	-1
302105.6823730469	6.129905716169563	-0.2073065578196263	-1
302114.7766113281	6.086055765873882	-0.2710191673964194	-1
302123.8708496094	6.431518367709919	-0.05006283747484709	-1
302132.9650878906	7.201128268376383	0.5846625974501165	-1
302142.0593261719	7.173722049441582	0.9260906137312598	-1
302151.1535644531	6.867349370402023	0.5078512737649541	-1
302160.2478027344	6.697791421150139	0.261244048991597	-1
302169.3420410156	6.525637093262326	0.1492363094331069	-1
302178.4362792969	6.484672008117677	-0.01801097083364992	-1
302187.5305175781	6.432888678656659	0.02352430425360445	-1
302196.6247558594	6.405338216464307	-0.05344176071118664	-1
302205.7189941406	6.385576890179741	-0.04543023410207186	-1
302214.8132324219	6.388605998588324	-0.03397018068585822	-1
302223.9074707031	6.382980511543813	-0.0424579650292096	-1
302233.0017089844	6.354564589806151	-0.02268581999120202	-1
302242.0959472656	6.324706235492974	-0.07467097530485602	-1
302251.1901855469	6.351030629996137	-0.029367175677327	-1
302260.2844238281	6.377282902870525	-0.002736852414655839	-1
302269.3786621094	6.362858577115366	0.02138500013648893	-1
302278.4729003906	6.381682322225848	0.01893552389433394	-1
302287.5671386719	6.434114746345848	0.07403562387774733	-1
302296.6613769531	6.504866064174899	0.1487625203164604	-1
302305.7556152344	6.562707610453083	0.1982692454469488	-1
302314.8498535156	6.575401017117622	0.2355905139277287	-1
302323.9440917969	6.578069517382327	0.2096909658962454	-1
302333.0383300781	6.620260670216164	0.2402384399760498	-1
302342.1325683594	6.657475430664472	0.265492125833617	-1
302351.2268066406	6.711350287359988	0.2990170054471256	-1
302360.3210449219	6.765225144055504	0.3351734892488619	-1
302369.4152832031	6.690651379901336	0.2977258728803801	-1
302378.5095214844	6.624083116541281	0.1877316355083719	-1
302387.6037597656	6.551456636364059	0.1163294204077582	-1
302396.6979980469	6.491379319593825	0.05509636037017657	-1
302405.7922363281	6.466569479294954	0.005654000064435456	-1
302414.8864746094	6.472267087968241	0.02409158951087333	-1
302423.9807128906	6.501692712508764	0.03552035042792285	-1
302433.0749511719	6.502558172054074	0.06352298479717271	-1
302442.1691894531	6.470391925620071	0.03483535937666868	-1
302451.2634277344	6.427623799756026	-0.003896820371128417	-1
302460.3576660156	6.387668417414239	-0.03393037464337154	-1
302469.4519042969	6.346847575527141	-0.07060077898851047	-1
302478.5461425781	6.394736337034266	-0.04370279931870005	-1
302487.6403808594	6.453010613085105	0.02723312551972014	-1
302496.7346191406	6.380528376165436	0.02201611400937201	-1
302505.8288574219	6.369710131849066	-0.04457890117841026	-1
302514.9230957031	6.307541287844335	-0.04444007971993497	-1
302524.0173339844	6.250493079482685	-0.106760072940258	-1
302533.1115722656	6.240828781226728	-0.1238447893054144	-1
302542.2058105469	6.257560999102712	-0.07690202271630665	-1
302551.3000488281	6.310931004396797	-0.027436336042553	-1
302560.3942871094	6.375624105408682	0.08287728985317307	-1
302569.4885253906	6.369854375106618	0.09672599287214692	-1
302578.5827636719	6.392212080027114	0.1032005892866297	-1
302587.6770019531	6.370287104879273	0.1174889344175167	-1
302596.7712402344	6.387668417414239	0.1061992224679355	-1
302605.8654785156	6.444644504147114	0.1621114447759841	-1
302614.9597167969	6.533931080571542	0.2389503737863182	-1
302624.0539550781	6.595090221773413	0.3050260626496566	-1
302633.1481933594	6.696781718347278	0.3684768140422716	-1
302642.2424316406	6.766667576631019	0.4374614113827609	-1
302651.3366699219	6.751522034588104	0.4288404951047239	-1
302660.4309082031	6.748565047808296	0.3748886499117085	-1
302669.5251464844	6.757003278375064	0.368820917889172	-1
302678.6193847656	6.773663374622271	0.3555416619091283	-1
302687.7136230469	6.774600955796356	0.3402269160840631	-1
302696.8078613281	6.787871335491102	0.3246668088199153	-1
302705.9020996094	6.757724494662821	0.2900827161597225	-1
302714.9963378906	6.727794018720868	0.2365355307035644	-1
302724.0905761719	6.720870342358392	0.1991712832133328	-1
302733.1848144531	6.721519437017374	0.1925093950869385	-1
302742.2790527344	6.702839935164445	0.1613975601882362	-1
302751.3732910156	6.689858041984802	0.1333903721363007	-1
302760.4675292969	6.72844311337985	0.1374995751740301	-1
302769.5617675781	6.622135832564334	0.09492575927397295	-1
302778.6560058594	6.59754235715179	-0.003130221226249187	-1
302787.7502441406	6.560111231817154	-0.01497565630413953	-1
302796.8444824219	6.542657797653413	-0.03677275746928458	-1
302805.9387207031	6.564727016058805	-0.04584157644745538	-1
302815.0329589844	6.568405219126371	-0.002690713807321627	-1
302824.1271972656	6.574968287344968	-0.02581511085808729	-1
302833.2214355469	6.664543350284499	0.04149991842011542	-1
302842.3156738281	6.674784621570661	0.09047952346935197	-1
302851.4099121094	6.694834434370332	0.07424140051996023	-1
302860.5041503906	6.721519437017374	0.09950121836095277	-1
302869.5983886719	6.740703790271734	0.1084966485088923	-1
302878.6926269531	6.740920155158062	0.1027657821097413	-1
302887.7868652344	6.717696990692257	0.07562804753587046	-1
302896.8811035156	6.749646872239933	0.06922704596302216	-1
302905.9753417969	6.659783322785297	0.03594707844628076	-1
302915.0695800781	6.604754520029369	-0.06448056309786512	-1
302924.1638183594	6.484022913458695	-0.1432965151293525	-1
302933.2580566406	6.309921301593936	-0.2847294691356773	-1
302942.3522949219	6.151109475029645	-0.447356063797103	-1
302951.4465332031	6.263907702434982	-0.3815156211313485	-1
302960.5407714844	6.626607373548434	-0.05231971002962322	-1
302969.6350097656	7.339673917254677	0.5269138173003423	-1
302978.7292480469	7.006832600454403	0.6608436308258626	-1
302987.8234863281	6.818523027720813	0.1509114316777724	-1
302996.9177246094	6.699450218611982	0.06336422751986379	-1
303006.0119628906	6.663605769110414	0.04598517598719568	-1
303015.1062011719	6.654806930399768	-0.05989296226307408	-1
303024.2004394531	6.638363199038888	0.03031938625653146	-1
303033.2946777344	6.65596087646018	-0.0532796739647277	-1
303042.3889160156	6.646224456575449	0.01102106081533774	-1
303051.4831542969	6.673558553881473	-0.007303950411365629	-1
303060.5773925781	6.688127122894183	0.01122384191758744	-1
303069.6716308594	6.667716701950634	0.03251645942157815	-1
303078.7658691406	6.64499838888626	-0.04486672748436055	-1
303087.8601074219	6.653652984339355	0.006330182792622879	-1
303096.9543457031	6.664759715170827	-0.02686408820987923	-1
303106.0485839844	6.629997090100896	-0.003516625951251949	-1
303115.1428222656	6.606990290521418	-0.06436318567697538	-1
303124.2370605469	6.594296883856879	-0.06045564375855719	-1
303133.3312988281	6.613841845255118	-0.0463609622147214	-1
303142.4255371094	6.591484140334623	-0.05605828055888691	-1
303151.5197753906	6.52592557977743	-0.08212153919518	-1
303160.6140136719	6.481210169936439	-0.1608832113705989	-1
303169.7082519531	6.490009008647085	-0.1255092607606328	-1
303178.8024902344	6.48582595417809	-0.1289417199420068	-1
303187.8967285156	6.532632891253578	-0.08047707909348043	-1
303196.9909667969	6.550374811932422	-0.04245356264425336	-1
303206.0852050781	6.562058515794101	-0.02522104715119632	-1
303215.1794433594	6.630574063131102	0.01974512409870727	-1
303224.2736816406	6.754262656481584	0.1269807868687526	-1
303233.3679199219	6.823283055220015	0.2204490441414562	-1
303242.4621582031	6.932186714671459	0.2703009825978862	-1
303251.5563964844	6.948486202774788	0.3259851672532531	-1
303260.6506347656	6.935143701451267	0.271673097482955	-1
303269.7448730469	6.921224227097539	0.2373991780463803	-1
303278.8391113281	6.890500413239052	0.1997448562077081	-1
303287.9333496094	6.930527917209616	0.1775027730056561	-1
303297.0275878906	7.045994644879657	0.2621609406636468	-1
303306.1218261719	7.110831989149093	0.3250286936800316	-1
303315.2160644531	7.080540905063261	0.3075433074761671	-1
303324.3103027344	7.048735266773137	0.2489703519840432	-1
303333.4045410156	7.058760173172972	0.2184320962133278	-1
303342.4987792969	7.056596524309698	0.2076807098457977	-1
303351.5930175781	7.047509199083948	0.176155472554595	-1
303360.6872558594	7.042388563440867	0.1483634266177563	-1
303369.7814941406	7.014982344506067	0.117478063452295	-1
303378.8757324219	6.974305745876521	0.06107579947678241	-1
303387.9699707031	6.963559623188928	0.02687577396240931	-1
303397.0642089844	6.91862784846161	-0.003894527707492653	-1
303406.1584472656	6.879177317521253	-0.06005905306057609	-1
303415.2526855469	6.846434098057044	-0.09263435708672567	-1
303424.3469238281	6.825590947340841	-0.1139959151617112	-1
303433.4411621094	6.806262350828928	-0.1313052414691075	-1
303442.5354003906	6.784914348711294	-0.1426708962390516	-1
303451.6296386719	6.765585752199383	-0.1592138523373464	-1
303460.7238769531	6.720293369328186	-0.1803716047499659	-1
303469.8181152344	6.680410108615173	-0.2168180791577865	-1
303478.9123535156	6.658989984868764	-0.2284516969652466	-1
303488.0065917969	6.678967676039657	-0.2058228080615278	-1
303497.1008300781	6.663245160966535	-0.186731312977287	-1
303506.1950683594	6.656321484604059	-0.1885904809877838	-1
303515.2893066406	6.629059508926811	-0.1911023864828323	-1
303524.3835449219	6.603889060484059	-0.1989607114782591	-1
303533.4777832031	6.608360601468158	-0.1947343643682195	-1
303542.5720214844	6.596388411091377	-0.1689306841978428	-1
303551.6662597656	6.551817244507938	-0.1910914081870922	-1
303560.7604980469	6.497004806638337	-0.2229996883725408	-1
303569.8547363281	6.444500260889562	-0.2503365124232178	-1
303578.9489746094	6.255830080012093	-0.3490770984911126	-1
303588.0432128906	6.113894714581337	-0.4928876976013666	-1
303597.1374511719	5.958472604569508	-0.575022442925417	-1
303606.2316894531	5.871854528409783	-0.6261035939155963	-1
303615.3259277344	5.792881344900292	-0.6403170705716433	-1
303624.4201660156	5.766052098995698	-0.6055363737087031	-1
303633.5144042969	5.994966148730057	-0.4334513635917162	-1
303642.6086425781	6.361416144539851	-0.02191880497126458	-1
303651.7028808594	6.400578188965105	0.1832890525525722	-1
303660.7971191406	6.448250585585903	0.1605784135104344	-1
303669.8913574219	6.463828857401474	0.2280419103767747	-1
303678.9855957031	6.477964696641529	0.2384863304642448	-1
303688.0798339844	6.512438835196357	0.2557733147594831	-1
303697.1740722656	6.545470541175669	0.3101625598668493	-1
303706.2683105469	6.57698769295069	0.3201529495426577	-1
303715.3625488281	6.62530918423047	0.3658314691472576	-1
303724.4567871094	6.623578265139851	0.3743754561944532	-1
303733.5510253906	6.621270373019025	0.351163977677958	-1
303742.6452636719	6.631655887562739	0.351764791863095	-1
303751.7395019531	6.632737711994376	0.3562125164092593	-1
303760.8337402344	6.628266171010277	0.3568419057824674	-1
303769.9279785156	6.564438529543702	0.3048520072784648	-1
303779.0222167969	6.310065544851487	0.12856806384687	-1
303788.1164550781	6.174476882753001	-0.07873171988448632	-1
303797.2106933594	6.234914807667114	-0.04405032040997505	-1
303806.3049316406	6.97740697591388	0.4374196460746325	-1
303815.3991699219	7.477931079617868	1.115533147336851	-1
303824.4934082031	7.175092360388322	1.028365779794323	-1
303833.5876464844	6.89345740001886	0.5040101948927347	-1
303842.6818847656	6.651272970589754	0.327628140238897	-1
303851.7761230469	6.609514547528571	0.153807232345869	-1
303860.8703613281	6.600499343931597	0.167525730229906	-1
303869.9645996094	6.596244167833826	0.1770863800014108	-1
303879.0588378906	6.585498045146233	0.1261674283658273	-1
303888.1530761719	6.581531355563564	0.1644269265869558	-1
303897.2473144531	6.552538460795696	0.1021526034945522	-1
303906.3415527344	6.53328198591256	0.1095368378027705	-1
303915.4357910156	6.535445634775834	0.08389607691286194	-1
303924.5300292969	6.543306892312395	0.1059547359124759	-1
303933.6242675781	6.513737024514321	0.09344668110146508	-1
303942.7185058594	6.505298793947554	0.06172340234908566	-1
303951.8127441406	6.50400060462959	0.08246512254706143	-1
303960.9069824219	6.473060425884775	0.05082116557531498	-1
303970.0012207031	6.471041020279053	0.05047149911092673	-1
303979.0954589844	6.488133846298915	0.05795445052503393	-1
303988.1896972656	6.547201460266288	0.1135090158726343	-1
303997.2839355469	6.513520659627994	0.1187366004793849	-1
304006.3781738281	6.469021614673331	0.06469578356237281	-1
304015.4724121094	6.507462442810827	0.06878322717677479	-1
304024.5666503906	6.518641295271075	0.114103278486124	-1
304033.6608886719	6.479046521073165	0.08307213694402779	-1
304042.7551269531	6.547778433296494	0.09388626684128948	-1
304051.8493652344	6.559462137158172	0.1609694735416486	-1
304060.9436035156	6.571434327534954	0.1397285224742638	-1
304070.0378417969	6.594296883856879	0.1603947176309536	-1
304079.1320800781	6.652210551763839	0.1987198642565768	-1
304088.2263183594	6.692093812476852	0.2330656400110759	-1
304097.3205566406	6.717336382548378	0.2525649491075777	-1
304106.4147949219	6.713586057852037	0.2344335078708542	-1
304115.5090332031	6.740920155158062	0.2348539771849063	-1
304124.6032714844	6.72433218053963	0.2218553414721413	-1
304133.6975097656	6.735871641143756	0.1989336443671011	-1
304142.7917480469	6.732914654363949	0.1902094607808889	-1
304151.8859863281	6.692021690848076	0.1523080293376271	-1
304160.9802246094	6.625453427488021	0.07362818375097671	-1
304170.0744628906	6.613913966883894	0.03437846930232086	-1
304179.1687011719	6.575401017117622	0.01350079656996422	-1
304188.2629394531	6.517343105953111	-0.03380072198175863	-1
304197.3571777344	6.523834052542932	-0.04322975713619486	-1
304206.4514160156	6.565376110717788	-0.001590141346507696	-1
304215.5456542969	6.623361900253522	0.05016448159403076	-1
304224.6398925781	6.665336688201033	0.0968575249803495	-1
304233.7341308594	6.653652984339355	0.09881577842591796	-1
304242.8283691406	6.631078914532533	0.06307351657300697	-1
304251.9226074219	6.614202453398997	0.04324429853915893	-1
304261.0168457031	6.616943075292477	0.03410880194801934	-1
304270.1110839844	6.613264872224912	0.03409991158012744	-1
304279.2053222656	6.64175291559135	0.04332098574964328	-1
304288.2995605469	6.629131630555587	0.05008147652975264	-1
304297.3937988281	6.600499343931597	0.01779462997394989	-1
304306.4880371094	6.574102827799658	-0.0157200060863761	-1
304315.5822753906	6.52592557977743	-0.04450538122892589	-1
304324.6765136719	6.516910376180456	-0.07816732305415436	-1
304333.7707519531	6.53003651261765	-0.05511763849036129	-1
304342.8649902344	6.549581474015889	-0.03492950131678158	-1
304351.9592285156	6.594729613629534	-0.00163538247592244	-1
304361.0534667969	6.6007878304467	0.02991425008578547	-1
304370.1477050781	6.550014203788543	-0.011385851041815	-1
304379.2419433594	6.507750929325931	-0.06022309288653245	-1
304388.3361816406	6.524843755345793	-0.06126126965718901	-1
304397.4304199219	6.491523562851377	-0.05545529622304833	-1
304406.5246582031	6.473204669142326	-0.08920992296977481	-1
304415.6188964844	6.495706617320373	-0.0725384891423905	-1
304424.7131347656	6.515035213832285	-0.03464009818444816	-1
304433.8073730469	6.518497052013523	-0.03174064968796975	-1
304442.9016113281	6.511068524249617	-0.02679088265303678	-1
304451.9958496094	6.481426534822766	-0.04887484794712448	-1
304461.0900878906	6.53191167496582	-0.03137495194935214	-1
304470.1843261719	6.509842456560429	-0.002027916096048299	-1
304479.2785644531	6.461448843651873	-0.05490141120404411	-1
304488.3728027344	6.446086936722629	-0.08203011534741229	-1
304497.4670410156	6.459934289447581	-0.05878771771234294	-1
304506.5612792969	6.504144847887141	-0.02802411549045522	-1
304515.6555175781	6.579656193215394	0.04521118464791708	-1
304524.7497558594	6.592926572910139	0.0836618226553251	-1
304533.8439941406	6.573525854769452	0.05949532108818292	-1
304542.9382324219	6.560760326476136	0.0386932108128419	-1
304552.0324707031	6.559390015529396	0.03261005181258563	-1
304561.1267089844	6.566097327005545	0.03441487203611745	-1
304570.2209472656	6.535806242919713	0.01920179212469989	-1
304579.3151855469	6.528377715155806	-0.006128844513565721	-1
304588.4094238281	6.494264184744857	-0.0218371545547531	-1
304597.5036621094	6.556865758522243	-0.005261217827698415	-1
304606.5979003906	6.537032310608901	0.02700456485479479	-1
304615.6921386719	6.383918092717898	-0.08021261787431623	-1
304624.7863769531	6.246886998043895	-0.2327403404824429	-1
304633.8806152344	5.883538232271461	-0.4258347492675051	-1
304642.9748535156	5.473166164537211	-0.8213925812410021	-1
304652.0690917969	5.670779427382878	-0.8119318168210826	-1
304661.1633300781	5.930273047718173	-0.378067495008375	-1
304670.2575683594	6.084901819813469	-0.1835142874444107	-1
304679.3518066406	6.15565313764252	-0.06994959736662863	-1
304688.4460449219	6.238016037704472	0.0321723985279931	-1
304697.5402832031	6.379013821961144	0.1379695528745247	-1
304706.6345214844	6.477531966868874	0.2867513776062297	-1
304715.7287597656	6.594657492000758	0.3523075092824742	-1
304724.8229980469	6.569126435414129	0.3912209212803837	-1
304733.9172363281	6.512655200082684	0.3004653634196279	-1
304743.0114746094	6.368195577644775	0.1810235906496301	-1
304752.1057128906	6.150099772226784	0.0008922158379154402	-1
304761.1999511719	6.114543809240319	-0.132713781097522	-1
304770.2941894531	6.482796845769506	0.1347953712473298	-1
304779.3884277344	7.132179991266727	0.6883051704078926	-1
304788.4826660156	6.646729307976879	0.7041634907055185	-1
304797.5769042969	6.61398608851267	0.1871924579900869	-1
304806.6711425781	6.550735420076301	0.2804019702511245	-1
304815.7653808594	6.545831149319548	0.2513305615604668	-1
304824.8596191406	6.561048812991239	0.1476385918560023	-1
304833.9538574219	6.625669792374349	0.3171554039302547	-1
304843.0480957031	6.674207648540455	0.2323989490664632	-1
304852.1423339844	6.837058286316191	0.41361996897275	-1
304861.2365722656	6.815782405827333	0.4078563400188559	-1
304870.3308105469	6.79183802507377	0.3300775555808939	-1
304879.4250488281	6.863671167334458	0.350000623578103	-1
304888.5192871094	6.736376492545187	0.277175320363939	-1
304897.6135253906	6.354348224919823	-0.01794030779671339	-1
304906.7077636719	6.265350135010498	-0.3106707103546751	-1
304915.8020019531	6.323119559659906	-0.1739871846122276	-1
304924.8962402344	6.363002820372918	-0.1480618817893412	-1
304933.9904785156	6.316268004926206	-0.1363499793973857	-1
304943.0847167969	6.30710855807168	-0.1654855895773769	-1
304952.1789550781	6.307901895988214	-0.1561590491664975	-1
304961.2731933594	6.299896395194101	-0.1266939812385769	-1
304970.3674316406	6.305810368753716	-0.1472563781214714	-1
304979.4616699219	6.328240195302987	-0.08583003044005366	-1
304988.5559082031	6.254964620466784	-0.1327732238423833	-1
304997.6501464844	6.262609513117018	-0.1456832148777473	-1
305006.7443847656	6.264340432207637	-0.1215449718515515	-1
305015.8386230469	6.293982421634486	-0.08721674456314665	-1
305024.9328613281	6.32665351946992	-0.05185796830624244	-1
305034.0270996094	6.352761549086756	0.001297802303555484	-1
305043.1213378906	6.365382834122519	0.02978125352269668	-1
305052.2155761719	6.42704682672582	0.06608520183413347	-1
305061.3098144531	6.449837261418971	0.1202773567178159	-1
305070.4040527344	6.435485057292588	0.1032179037281034	-1
305079.4982910156	6.415435244492918	0.08341885675755639	-1
305088.5925292969	6.417310406841088	0.07376385549262372	-1
305097.6867675781	6.46253066808351	0.1040849103515597	-1
305106.7810058594	6.490802346563619	0.1416575064119253	-1
305115.8752441406	6.477964696641529	0.1357984661983531	-1
305124.9694824219	6.511717618908599	0.1342631636625619	-1
305134.0637207031	6.543667500456274	0.1727501572254943	-1
305143.1579589844	6.468084033499245	0.1326530485029759	-1
305152.2521972656	6.406997013926151	0.03721734646513482	-1
305161.3464355469	6.430436543278282	0.03822579646140274	-1
305170.4406738281	6.442769341798943	0.06815370217895489	-1
305179.5349121094	6.433321408429314	0.05834007202420478	-1
305188.6291503906	6.405915189494514	0.03610863606146989	-1
305197.7233886719	6.379879281506454	0.0101136086421116	-1
305206.8176269531	6.361704631054954	-0.009295641341087459	-1
305215.9118652344	6.390625404194046	0.006486911061199283	-1
305225.0061035156	6.441254787594652	0.05533462125053124	-1
305234.1003417969	6.443779044601804	0.08091158004987076	-1
305243.1945800781	6.405770946236962	0.04597292294601105	-1
305252.2888183594	6.383918092717898	0.01419592827489868	-1
305261.3830566406	6.386586592982602	0.0141914276438253	-1
305270.4772949219	6.378004119158283	0.01484540322997916	-1
305279.5715332031	6.37959079499135	0.01186144804798797	-1
305288.6657714844	6.357737941472285	0.00476373976027417	-1
305297.7600097656	6.331052938825243	-0.01892755939173463	-1
305306.8542480469	6.369421645333963	-0.007420835172175474	-1
305315.9484863281	6.424017718317237	0.0589641387980802	-1
305325.0427246094	6.437071733125656	0.08414113432011525	-1
305334.1369628906	6.521598282050882	0.1229458766300393	-1
305343.2312011719	6.682790122364774	0.2563828380363096	-1
305352.3254394531	6.811743594615889	0.3848649422188593	-1
305361.4196777344	6.814700581395696	0.3996699024089002	-1
305370.5139160156	6.811599351358337	0.3457472044915033	-1
305379.6081542969	6.775971266743096	0.301844200316921	-1
305388.7023925781	6.723755207509424	0.2264372269541968	-1
305397.7966308594	6.636199550175614	0.1294174932871075	-1
305406.8908691406	6.587878058895834	0.05175006709244719	-1
305415.9851074219	6.55059117681875	0.005504657225838471	-1
305425.0793457031	6.53414744545787	-0.01854992022291811	-1
305434.1735839844	6.557514853181226	-0.01931165491340305	-1
305443.2678222656	6.547562068410167	-0.005760224869197432	-1
305452.3620605469	6.510996402620841	-0.04677223271847657	-1
305461.4562988281	6.556288785492037	-0.04216401601495061	-1
305470.5505371094	6.554629988030194	0.006847438848522747	-1
305479.6447753906	6.569631286815559	0.004607357539432437	-1
305488.7390136719	6.546336000720978	6.722462183708297e-05	-1
305497.8332519531	6.558236069468983	-0.0113593348158725	-1
305506.9274902344	6.60352845234018	0.02132368283043872	-1
305516.0217285156	6.580305287874376	0.03551246164530399	-1
305525.1159667969	6.497509658039768	-0.04663174417401386	-1
305534.2102050781	6.473132547513551	-0.09422646277352692	-1
305543.3044433594	6.450991207479383	-0.09823556451059477	-1
305552.3986816406	6.49729329315344	-0.07980956755031834	-1
305561.4929199219	6.544965689774238	-0.01646042037694649	-1
305570.5871582031	6.511068524249617	-0.0144073936465502	-1
305579.6813964844	6.456111843122464	-0.07851839789398052	-1
305588.7756347656	6.482508359254403	-0.07576453773555447	-1
305597.8698730469	6.478469548042959	-0.0466163620156092	-1
305606.9641113281	6.486042319064417	-0.05150013237111029	-1
305616.0583496094	6.481065926678888	-0.04246502811261308	-1
305625.1525878906	6.434547476118502	-0.06534144804922129	-1
305634.2468261719	6.46527128997699	-0.07528535605729469	-1
305643.3410644531	6.518064322240869	-0.003977308666379916	-1
305652.4353027344	6.550519055189974	0.03459731911644452	-1
305661.5295410156	6.54510993303179	0.03677462354443335	-1
305670.6237792969	6.431229881194816	-0.02777225382300164	-1
305679.7180175781	6.366897388326811	-0.1329877184898876	-1
305688.8122558594	6.50313514508428	-0.05385078029745419	-1
305697.9064941406	7.048374658629258	0.3356933960997677	-1
305707.0007324219	7.530651990252971	0.8654653455850426	-1
305716.0949707031	7.288756047338969	0.8416966387436363	-1
305725.1892089844	6.948774689289891	0.3360835919221965	-1
305734.2834472656	6.869585140894072	0.1571051361424539	-1
305743.3776855469	6.843621354534788	0.1415525417436325	-1
305752.4719238281	6.830134609953715	0.08114012945084691	-1
305761.5661621094	6.834534029309038	0.0842943572028981	-1
305770.6604003906	6.847155314344802	0.06886491890635982	-1
305779.7546386719	6.85523293676769	0.0721523846468802	-1
305788.8488769531	6.849102598321748	0.05428921993915293	-1
305797.9431152344	6.858334166805049	0.03984269710774613	-1
305807.0373535156	6.838356475634155	0.02786988896835503	-1
305816.1315917969	6.816070892342436	-0.0153921771077161	-1
305825.2258300781	6.817513324917952	-0.02751677968302119	-1
305834.3200683594	6.797968363519712	-0.04217741380032314	-1
305843.4143066406	6.771499725758997	-0.07600272246447926	-1
305852.5085449219	6.740920155158062	-0.1077203165755659	-1
305861.6027832031	6.563428826740841	-0.2150783951329232	-1
305870.6970214844	6.455318505205931	-0.3708175036086494	-1
305879.7912597656	6.409016419531873	-0.385040318425948	-1
305888.8854980469	6.331052938825243	-0.3936293652851647	-1
305897.9797363281	6.267513783873771	-0.4573846991214324	-1
305907.0739746094	6.232390550659961	-0.4477808814712566	-1
305916.1682128906	6.174188396237898	-0.459309657029721	-1
305925.2624511719	6.170942922942987	-0.4501684048754412	-1
305934.3566894531	6.188396357106729	-0.3869308450880783	-1
305943.4509277344	6.206571007558228	-0.333380385263174	-1
305952.5451660156	6.224168684979521	-0.2813565684410442	-1
305961.6394042969	6.241622119143262	-0.231923319684977	-1
305970.7336425781	6.299824273565325	-0.1644677910987935	-1
305979.8278808594	6.309127963677402	-0.1017282054399585	-1
305988.9221191406	6.353627008632065	-0.06452486383033802	-1
305998.0163574219	6.395818161465903	0.002560336729118222	-1
306007.1105957031	6.397909688700401	0.0383227312373487	-1
306016.2048339844	6.395096945178145	0.03239733952883371	-1
306025.2990722656	6.403030324343482	0.05759342949713993	-1
306034.3933105469	6.410675216993716	0.07082504826819501	-1
306043.4875488281	6.407501865327581	0.08355132909795329	-1
306052.5817871094	6.412117649569232	0.09102822149312079	-1
306061.6760253906	6.397260594041419	0.09303468601391408	-1
306070.7702636719	6.413560082144747	0.1026353491771402	-1
306079.8645019531	6.413632203773523	0.1190124455696857	-1
306088.9587402344	6.401227283624087	0.1196000152276844	-1
306098.0529785156	6.419113447560483	0.1209442367822711	65.32261279819258
306107.1472167969	6.403679419002464	0.1406239026272155	65.32261279819258
306116.2414550781	6.392933296314872	0.118025671254688	65.32261279819258
306125.3356933594	6.389110849989755	0.1229035000044774	65.32261279819258
306134.4299316406	6.405770946236962	0.139072278158582	65.32261279819258
306143.5241699219	6.423224380400703	0.1575765799035619	65.32261279819258
306152.6184082031	6.426974705097044	0.1764068181798277	65.32261279819258
306161.7126464844	6.43115775956604	0.1707021333136558	65.32261279819258
306170.8068847656	6.421277096423757	0.1767622062843202	65.32261279819258
306179.9011230469	6.405266094835532	0.1565741882515012	65.32261279819258
306188.9953613281	6.375624105408682	0.1382337049805606	65.32261279819258
306198.0895996094	6.352761549086756	0.1146799635956863	65.32261279819258
306207.1838378906	6.376778051469095	0.1227755690598492	65.32261279819258
306216.2780761719	6.532344404738475	0.2331819349299611	65.32261279819258
306225.3723144531	6.515972795006371	0.304911663115655	65.32261279819258
306234.4665527344	6.450342112820401	0.2151651490557014	65.32261279819258
306243.5607910156	6.418897082674156	0.1592017991635334	65.32261279819258
306252.6550292969	6.3886781202171	0.1536145232954844	65.32261279819258
306261.7492675781	6.355357927722684	0.1022140414917773	65.32261279819258
306270.8435058594	6.348722737875312	0.1034474409326555	65.32261279819258
306279.9377441406	6.370575591394376	0.1207577627000056	65.32261279819258
306289.0319824219	6.373388334916632	0.1525349821383217	65.32261279819258
306298.1262207031	6.380167768021557	0.1532624990474089	65.32261279819258
306307.2204589844	6.358747644275146	0.1446069557853768	65.32261279819258
306316.3146972656	6.358314914502492	0.1428197355609844	65.32261279819258
306325.4089355469	6.353843373518393	0.1369134456890261	65.32261279819258
306334.5031738281	6.355862779124115	0.1512540141710822	65.32261279819258
306343.5974121094	6.391274498853028	0.1624169919216205	65.32261279819258
306352.6916503906	6.464982803461886	0.2350998546245418	65.32261279819258
306361.7858886719	6.484311399973798	0.270987101377452	65.32261279819258
306370.8801269531	6.418103744757622	0.2253570187600433	65.32261279819258
306379.9743652344	6.376561686582767	0.1575925762026933	65.32261279819258
306389.0686035156	6.392356323284665	0.1558589123810686	65.32261279819258
306398.1628417969	6.400506067336329	0.1813586562095522	65.32261279819258
306407.2570800781	6.42156558293886	0.1810374726683136	65.32261279819258
306416.3513183594	6.440894179450773	0.2094137675407805	65.32261279819258
306425.4455566406	6.453154856342657	0.2122526097813685	65.32261279819258
306434.5397949219	6.447673612555697	0.21004366697509	65.32261279819258
306443.6340332031	6.442048125511185	0.1954993024070459	65.32261279819258
306452.7282714844	6.458852465015944	0.1956492197640651	65.32261279819258
306461.8225097656	6.46714645232516	0.2089746184455442	65.32261279819258
306470.9167480469	6.431878975853798	0.1791065191880742	65.32261279819258
306480.0109863281	6.37685017309787	0.1247897446953625	65.32261279819258
306489.1052246094	6.237799672818145	0.02192625121711147	65.32261279819258
306498.1994628906	6.038599734139411	-0.1498773828764972	65.32261279819258
306507.2937011719	5.895510422648242	-0.2998946449567745	65.32261279819258
306516.3879394531	6.086055765873882	-0.206951721588039	65.32261279819258
306525.4821777344	6.747483223376658	0.3128902496877458	65.32261279819258
306534.5764160156	6.872181519530002	0.7234670436098626	65.32261279819258
306543.6706542969	6.654951173657319	0.475262765916345	65.32261279819258
306552.7648925781	6.557514853181226	0.2601819088366197	65.32261279819258
306561.8591308594	6.465992506264747	0.2271057585831493	65.32261279819258
306570.9533691406	6.45070272096428	0.1160650471177074	65.32261279819258
306580.0476074219	6.445798450207526	0.1494886634140706	65.32261279819258
306589.1418457031	6.372306510484995	0.08307385017686877	65.32261279819258
306598.2360839844	6.280495677053414	-0.01384298400663396	65.32261279819258
306607.3303222656	6.265782864783152	-0.04400367997533699	65.32261279819258
306616.4245605469	6.266215594555807	-0.04212096330044689	65.32261279819258
306625.5187988281	6.282587204287911	-0.01059946277400204	65.32261279819258
306634.6130371094	6.317205586100291	0.005077970669184704	65.32261279819258
306643.7072753906	6.343313615717127	0.05754119381567029	65.32261279819258
306652.8015136719	6.343169372459576	0.05151464833175768	65.32261279819258
306661.8957519531	6.321028032425408	0.04379744148821065	65.32261279819258
306670.9899902344	6.223519590320539	-0.02333936478668063	65.32261279819258
306680.0842285156	6.32989899276483	-0.01796350594926086	65.32261279819258
306689.1784667969	6.392933296314872	0.1153047469884761	65.32261279819258
306698.2727050781	6.423368623658255	0.1284085303946297	65.32261279819258
306707.3669433594	6.439379625246481	0.1354703802124506	65.32261279819258
306716.4611816406	6.355141562836357	0.1002006823666762	65.32261279819258
306725.5554199219	6.276312622584418	-0.0173152072182626	65.32261279819258
306734.6496582031	6.130626932457321	-0.1071320460730843	65.32261279819258
306743.7438964844	6.099398267197403	-0.1933871986496688	65.32261279819258
306752.8381347656	6.11331774155113	-0.1586332306453523	65.32261279819258
306761.9323730469	6.120746269315037	-0.1095298946496732	65.32261279819258
306771.0266113281	6.119448079997072	-0.1036510481585315	65.32261279819258
306780.1208496094	6.150965231772093	-0.0556766596190062	65.32261279819258
306789.2150878906	6.180174491426288	-0.02483716635222096	65.32261279819258
306798.3093261719	6.171087166200539	0.004212813555567751	65.32261279819258
306807.4035644531	6.195320033469205	0.004184266743940106	65.32261279819258
306816.4978027344	6.240756659597952	0.05998224886714544	65.32261279819258
306825.5920410156	6.236789970015284	0.08431481170907629	65.32261279819258
306834.6862792969	6.214720751609892	0.05345582163879263	65.32261279819258
306843.7805175781	6.259508283079659	0.08200542014454822	65.32261279819258
306852.8747558594	6.263258607776	0.1079728053614914	65.32261279819258
306861.9689941406	6.23325601020527	0.08913551097614614	65.32261279819258
306871.0632324219	6.167192598246646	0.02848209248518085	65.32261279819258
306880.1574707031	6.132429973176715	-0.008808622627760793	65.32261279819258
306889.2517089844	6.085046063071021	-0.04096807675022797	65.32261279819258
306898.3459472656	6.07083810220219	-0.05630589137974817	65.32261279819258
306907.4401855469	6.012275339636248	-0.07786692399766876	65.32261279819258
306916.5344238281	5.997923135509865	-0.1036306464203987	65.32261279819258
306925.6286621094	6.020208718801585	-0.07152482891588886	65.32261279819258
306934.7229003906	6.030522111716523	-0.03433269567433465	65.32261279819258
306943.8171386719	6.019199015998724	-0.03147664934275879	65.32261279819258
306952.9113769531	6.033767585011433	-0.01718551753379955	65.32261279819258
306962.0056152344	6.068530210081365	0.025319627138468	65.32261279819258
306971.0998535156	6.122837796549534	0.07773608793910511	65.32261279819258
306980.1940917969	6.153273123892919	0.1253201396600198	65.32261279819258
306989.2883300781	6.204190993808627	0.1577536392926304	65.32261279819258
306998.3825683594	6.246165781756137	0.2048369827834068	65.32261279819258
307007.4768066406	6.258498580276798	0.2191409416658548	65.32261279819258
307016.5710449219	6.266936810843565	0.2113068253400353	65.32261279819258
307025.6652832031	6.289222394135284	0.221972499466169	65.32261279819258
307034.7595214844	6.297804867959603	0.2241348732928564	65.32261279819258
307043.8537597656	6.273283514175835	0.2013538043423634	65.32261279819258
307052.9479980469	6.30076185473941	0.1871375736322652	65.32261279819258
307062.0422363281	6.34634272412571	0.2261465521409926	65.32261279819258
307071.1364746094	6.390769647451598	0.2552803609636744	65.32261279819258
307080.2307128906	6.356151265639218	0.2341430307832678	65.32261279819258
307089.3249511719	6.345188778065298	0.1861476206810794	65.32261279819258
307098.4191894531	6.402886081085931	0.2021224054962501	65.32261279819258
307107.5134277344	6.380816862680539	0.2180722591081575	65.32261279819258
307116.6076660156	6.368267699273551	0.1559610638489664	65.32261279819258
307125.7019042969	6.395601796579576	0.1637956925890909	65.32261279819258
307134.7961425781	6.330548087423813	0.1339188713807588	65.32261279819258
307143.8903808594	6.363940401547003	0.08308321243581957	65.32261279819258
307152.9846191406	6.388750241845876	0.1337167228101716	65.32261279819258
307162.0788574219	6.350381535337155	0.09840916362264347	65.32261279819258
307171.1730957031	6.391274498853028	0.07547111759033234	65.32261279819258
307180.2673339844	6.437792949413414	0.1362104987914584	65.32261279819258
307189.3615722656	6.368772550674981	0.08986785233399924	65.32261279819258
307198.4558105469	6.35543004935146	0.02088046580186643	65.32261279819258
307207.5500488281	6.331990519999328	0.01345695180084922	65.32261279819258
307216.6442871094	6.272273811372974	-0.0421739428501883	65.32261279819258
307225.7385253906	6.144474285182272	-0.1403906006993217	65.32261279819258
307234.8327636719	6.024031165126702	-0.2461507759235708	65.32261279819258
307243.9270019531	5.985662458617981	-0.3062856023000272	65.32261279819258
307253.0212402344	6.332351128143207	-0.09361154532706519	65.32261279819258
307262.1154785156	7.05500984847663	0.5123809900196996	65.32261279819258
307271.2097167969	6.739117114438667	0.6635025489945468	65.32261279819258
307280.3039550781	6.521886768565985	0.1232873770238911	65.32261279819258
307289.3981933594	6.378364727302162	0.01581535423802834	65.32261279819258
307298.4924316406	6.328600803446866	-0.03051446200455513	65.32261279819258
307307.5866699219	6.334442655377705	-0.1247705735497305	65.32261279819258
307316.6809082031	6.317421950986619	-0.02556240538084012	65.32261279819258
307325.7751464844	6.295424854210002	-0.1390241515808574	65.32261279819258
307334.8693847656	6.289943610423042	-0.08796984006539046	65.32261279819258
307343.9636230469	6.287419353415889	-0.1141046190129362	65.32261279819258
307353.0578613281	6.31843165378948	-0.09659237447008026	65.32261279819258
307362.1520996094	6.257921607246591	-0.08468488880282674	65.32261279819258
307371.2463378906	6.262176783344363	-0.1618651801460382	65.32261279819258
307380.3405761719	6.295713340725105	-0.07657651404630009	65.32261279819258
307389.4348144531	6.279990825651983	-0.1019676489354367	65.32261279819258
307398.5290527344	6.271552595085216	-0.09689641434523297	65.32261279819258
307407.6232910156	6.237222699787939	-0.1242849513236941	65.32261279819258
307416.7175292969	6.227125671759328	-0.1376611203799548	65.32261279819258
307425.8117675781	6.206138277785573	-0.1404026385881559	65.32261279819258
307434.9060058594	6.1789484237371	-0.1626223918998206	65.32261279819258
307444.0002441406	6.206138277785573	-0.1436606232260791	65.32261279819258
307453.0944824219	6.245300322210827	-0.09904971942607842	65.32261279819258
307462.1887207031	6.243136673347554	-0.06805874194861539	65.32261279819258
307471.2829589844	6.180174491426288	-0.1196987777932464	65.32261279819258
307480.3771972656	6.223303225434211	-0.1118497003972107	65.32261279819258
307489.4714355469	6.175847193699741	-0.09705983371805517	65.32261279819258
307498.5656738281	6.145123379841254	-0.1417756695115071	65.32261279819258
307507.6599121094	6.174116274609122	-0.1299898924901005	65.32261279819258
307516.7541503906	6.192940019719604	-0.07226189282554846	65.32261279819258
307525.8483886719	6.229289320622602	-0.05828288251870652	65.32261279819258
307534.9426269531	6.276168379326866	0.001622049806655742	65.32261279819258
307544.0368652344	6.293982421634486	0.03112561184474683	65.32261279819258
307553.1311035156	6.226043847327691	-0.01029289266039916	65.32261279819258
307562.2253417969	6.241117267741831	-0.0354210863189175	65.32261279819258
307571.3195800781	6.316700734698861	0.02545288553474035	65.32261279819258
307580.4138183594	6.320451059395202	0.0785788985196029	65.32261279819258
307589.5080566406	6.33898631799058	0.05133549500129421	65.32261279819258
307598.6022949219	6.354492468177375	0.08599507886524727	65.32261279819258
307607.6965332031	6.34857849461776	0.07389327284572993	65.32261279819258
307616.7907714844	6.392356323284665	0.08406151023234265	65.32261279819258
307625.8850097656	6.394231485632836	0.1147675850237662	65.32261279819258
307634.9792480469	6.34035662893732	0.05709317666864026	65.32261279819258
307644.0734863281	6.280784163568517	-0.003682547881639929	65.32261279819258
307653.1677246094	6.301338827769617	-0.02076545969092283	65.32261279819258
307662.2619628906	6.303358233375339	0.008631799470712059	65.32261279819258
307671.3562011719	6.274870190008902	-0.01690157994096789	65.32261279819258
307680.4504394531	6.284822974779961	-0.02884761863891684	65.32261279819258
307689.5446777344	6.316700734698861	0.01836518504818021	65.32261279819258
307698.6389160156	6.366969509955586	0.06611120715903274	65.32261279819258
307707.7331542969	6.322758951516027	0.06429806667030348	65.32261279819258
307716.8273925781	6.308550990647196	0.01427972580107451	65.32261279819258
307725.9216308594	6.328961411590745	0.03357570996924633	65.32261279819258
307735.0158691406	6.352545184200428	0.06234187089129274	65.32261279819258
307744.1101074219	6.353771251889617	0.062884462792898	65.32261279819258
307753.2043457031	6.331341425340346	0.05317511175984328	65.32261279819258
307762.2985839844	6.295064246066123	0.01272024814956542	65.32261279819258
307771.3928222656	6.345477264580401	0.02994793879725308	65.32261279819258
307780.4870605469	6.351607603026343	0.0701679076365726	65.32261279819258
307789.5812988281	6.396034526352231	0.08174693678576928	65.32261279819258
307798.6755371094	6.345982115981832	0.07813915610784654	65.32261279819258
307807.7697753906	6.389110849989755	0.06154364682293882	65.32261279819258
307816.8640136719	6.395601796579576	0.09611432361171129	65.32261279819258
307825.9582519531	6.386081741581172	0.08889645599361484	65.32261279819258
307835.0524902344	6.368339820902326	0.05312802454637279	65.32261279819258
307844.1467285156	6.372234388856219	0.06383700312509111	65.32261279819258
307853.2409667969	6.352400940942877	0.04117424450865481	65.32261279819258
307862.3352050781	6.366031928781501	0.04366215961809677	65.32261279819258
307871.4294433594	6.375840470295009	0.05677322530729691	65.32261279819258
307880.5236816406	6.346414845754486	0.04176375999289701	65.32261279819258
307889.6179199219	6.327518979015229	0.01203148586735279	65.32261279819258
307898.7121582031	6.321388640569287	0.003959580239237931	65.32261279819258
307907.8063964844	6.316700734698861	0.008424384457107378	65.32261279819258
307916.9006347656	6.29528061095245	-0.01069973495077755	65.32261279819258
307925.9948730469	6.203325534263318	-0.06008888191944151	65.32261279819258
307935.0891113281	6.071559318489948	-0.1807846444817262	65.32261279819258
307944.1833496094	6.312878288373744	-0.08913828368393281	65.32261279819258
307953.2775878906	6.963199015045049	0.4463678561610748	65.32261279819258
307962.3718261719	7.071669944723839	0.8093803860041453	65.32261279819258
307971.4660644531	6.775322172084114	0.498065771915257	65.32261279819258
307980.5603027344	6.614202453398997	0.2005335974830763	65.32261279819258
307989.6545410156	6.519001903414954	0.1330492005620494	65.32261279819258
307998.7487792969	6.429498962104197	0.002838036498426795	65.32261279819258
308007.8430175781	6.359396738934128	-0.05509062224810463	65.32261279819258
308016.9372558594	6.32802383041666	-0.1044149556670108	65.32261279819258
308026.0314941406	6.340140264050993	-0.09619489154245128	65.32261279819258
308035.1257324219	6.339058439619356	-0.07418460762259496	65.32261279819258
308044.2199707031	6.356367630525545	-0.07281082187797328	65.32261279819258
308053.3142089844	6.399207878018365	-0.02298191383245545	65.32261279819258
308062.4084472656	6.389327214876082	-0.01222101970234134	65.32261279819258
308071.5026855469	6.392644809799768	-0.01953320142929416	65.32261279819258
308080.5969238281	6.284895096408737	-0.07238033504147715	65.32261279819258
308089.6911621094	6.27198532485787	-0.1367050324455361	65.32261279819258
308098.7854003906	6.291097556483455	-0.1015135792547447	65.32261279819258
308107.8796386719	6.294198786520814	-0.07152567546587929	65.32261279819258
308116.9738769531	6.319729843107444	-0.06789451822078665	65.32261279819258
308126.0681152344	6.33761600704384	-0.01953264533027323	65.32261279819258
308135.1623535156	6.342087548027939	-0.01841035632129574	65.32261279819258
308144.2565917969	6.325427451780731	-0.009834147012214394	65.32261279819258
308153.3508300781	6.316340126554982	-0.00531973778843633	65.32261279819258
308162.4450683594	6.284101758492203	-0.02751157200214242	65.32261279819258
308171.5393066406	6.29391030000571	-0.02264700231754397	65.32261279819258
308180.6335449219	6.286121164097925	-0.01260951917695373	65.32261279819258
308189.7277832031	6.278187784932588	-0.008875537487410138	65.32261279819258
308198.8220214844	6.267802270388875	-0.01677087825803642	65.32261279819258
308207.9162597656	6.250997930884116	-0.01218746764427626	65.32261279819258
308217.0104980469	6.248906403649617	-0.01889630282279568	65.32261279819258
308226.1047363281	6.267585905502547	0.008336544346083701	65.32261279819258
308235.1989746094	6.275807771182987	0.03203850597583745	65.32261279819258
308244.2932128906	6.255757958383318	0.02631521170876933	65.32261279819258
308253.3874511719	6.239386348651212	0.01669830186788458	65.32261279819258
308262.4816894531	6.281000528454844	0.03803617676034406	65.32261279819258
308271.5759277344	6.296290313755312	0.08819843176230478	65.32261279819258
308280.6701660156	6.309055842048626	0.09110515881097037	65.32261279819258
308289.7644042969	6.337399642157513	0.1192215158594695	65.32261279819258
308298.8586425781	6.341149966853854	0.1386643076431038	65.32261279819258
308307.9528808594	6.30761340947311	0.1121733761859008	65.32261279819258
308317.0471191406	6.320090451251323	0.1045063900570848	65.32261279819258
308326.1413574219	6.351968211170222	0.1365440570823549	65.32261279819258
308335.2355957031	6.385504768550965	0.171691312462241	65.32261279819258
308344.3298339844	6.365454955751295	0.1664222452757899	65.32261279819258
308353.4240722656	6.331052938825243	0.1306020547739602	65.32261279819258
308362.5183105469	6.351823967912671	0.1219065010159239	65.32261279819258
308371.6125488281	6.369710131849066	0.1559415885320933	65.32261279819258
308380.7067871094	6.360767049880868	0.1481290082636956	65.32261279819258
308389.8010253906	6.362714333857815	0.13807966927688	65.32261279819258
308398.8952636719	6.356511873783097	0.1400839099486215	65.32261279819258
308407.9895019531	6.357521576585958	0.128861696517303	65.32261279819258
308417.0837402344	6.384927795520759	0.1473067525682066	65.32261279819258
308426.1779785156	6.38319687643014	0.1571503918867349	65.32261279819258
308435.2722167969	6.396034526352231	0.1521227097137121	65.32261279819258
308444.3664550781	6.374830767492148	0.1455297362389174	65.32261279819258
308453.4606933594	6.393366026087526	0.1362828604483711	65.32261279819258
308462.5549316406	6.385576890179741	0.1423914631404885	65.32261279819258
308471.6491699219	6.359829468706783	0.1181886440675083	65.32261279819258
308480.7434082031	6.390120552792616	0.1114510459334908	65.32261279819258
308489.8376464844	6.388101147186894	0.1404626722873448	65.32261279819258
308498.9318847656	6.378292605673386	0.1130578414175892	65.32261279819258
308508.0261230469	6.394736337034266	0.1163898943306842	65.32261279819258
308517.1203613281	6.440100841534239	0.1530374481646619	65.32261279819258
308526.2145996094	6.422142555969066	0.1524539806709298	65.32261279819258
308535.3088378906	6.405410338093083	0.1218994698925189	65.32261279819258
308544.4030761719	6.406924892297375	0.1065440846829769	65.32261279819258
308553.4973144531	6.419185569189259	0.1208874944547341	65.32261279819258
308562.5915527344	6.405338216464307	0.1050458562095484	65.32261279819258
308571.6857910156	6.393582390973854	0.08876555394062684	65.32261279819258
308580.7800292969	6.328168073674211	0.04309906217120725	65.32261279819258
308589.8742675781	6.227414158274431	-0.04792058641968126	65.32261279819258
308598.9685058594	6.062471993264198	-0.1642882218867633	65.32261279819258
308608.0627441406	6.056413776447031	-0.2154959258980697	65.32261279819258
308617.1569824219	7.162326832095007	0.425373733634604	65.32261279819258
308626.2512207031	7.115519895019519	1.057806904212336	65.32261279819258
308635.3454589844	6.786212538029258	0.494498639545066	65.32261279819258
308644.4396972656	6.622135832564334	0.2027960640878169	65.32261279819258
308653.5339355469	6.534796540116852	0.2245373820023022	65.32261279819258
308662.6281738281	6.47623377755091	-0.002264587786964631	65.32261279819258
308671.7224121094	6.459429438046151	0.09487572486812748	65.32261279819258
308680.8166503906	6.390264796050167	-0.03795060538292043	65.32261279819258
308689.9108886719	6.400722432222657	-0.02540478078241311	65.32261279819258
308699.0051269531	6.4092327844182	-0.0008232739504135042	65.32261279819258
308708.0993652344	6.409665514190855	-0.02401612640844807	65.32261279819258
308717.1936035156	6.422358920855394	0.02472507521020298	65.32261279819258
308726.2878417969	6.415146757977815	-0.01983507367373601	65.32261279819258
308735.3820800781	6.411684919796577	0.0228074224930841	65.32261279819258
308744.4763183594	6.408150959986563	-0.02499985967578293	65.32261279819258
308753.5705566406	6.400217580821226	0.00936802124629718	65.32261279819258
308762.6647949219	6.383557484574019	-0.02891576714801755	65.32261279819258
308771.7590332031	6.384999917149535	-0.02084964104974815	65.32261279819258
308780.8532714844	6.372955605143977	-0.01849527225465868	65.32261279819258
308789.9475097656	6.35954098219168	-0.04333937029955687	65.32261279819258
308799.0417480469	6.350670021852258	-0.02891328978652292	65.32261279819258
308808.1359863281	6.344828169921419	-0.05308154033639593	65.32261279819258
308817.2302246094	6.346847575527141	-0.02493431990674026	65.32261279819258
308826.3244628906	6.345549386209177	-0.0400109391055995	65.32261279819258
308835.4187011719	6.345333021322849	-0.0189697278366701	65.32261279819258
308844.5129394531	6.364589496205985	-0.01627958950667746	65.32261279819258
308853.6071777344	6.407718230213908	0.0292451542096804	65.32261279819258
308862.7014160156	6.416733433810882	0.05545026115685662	65.32261279819258
308871.7956542969	6.44248085528384	0.05886761853505532	65.32261279819258
308880.8898925781	6.492821752169341	0.1072928081182461	65.32261279819258
308889.9841308594	6.551456636364059	0.1491543197964889	65.32261279819258
308899.0783691406	6.569126435414129	0.1806382247997752	65.32261279819258
308908.1726074219	6.571145841019851	0.1610052054581408	65.32261279819258
308917.2668457031	6.582396815108874	0.1600284632731689	65.32261279819258
308926.3610839844	6.597686600409341	0.1597375510684768	65.32261279819258
308935.4553222656	6.613697601997567	0.1618721040868087	65.32261279819258
308944.5495605469	6.619250967413302	0.1581970192309055	65.32261279819258
308953.6437988281	6.62444372468516	0.1450034504701456	65.32261279819258
308962.7380371094	6.626030400518228	0.1367649908885259	65.32261279819258
308971.8322753906	6.612327291050827	0.1130961357438239	65.32261279819258
308980.9265136719	6.601220560219355	0.08796938620215705	65.32261279819258
308990.0207519531	6.609803034043674	0.07637737455745557	65.32261279819258
308999.1149902344	6.656321484604059	0.09982314912686972	65.32261279819258
309008.2092285156	6.649253564984032	0.107635352571541	65.32261279819258
309017.3034667969	6.558308191097759	0.03096629794700584	65.32261279819258
309026.3977050781	6.560111231817154	-0.02010873297113074	65.32261279819258
309035.4919433594	6.572732516852918	0.02278808581256239	65.32261279819258
309044.5861816406	6.535878364548489	-0.004564927764236254	65.32261279819258
309053.6804199219	6.533858958942767	-0.03757084411184636	65.32261279819258
309062.7746582031	6.531983796594596	-0.01863830699210188	65.32261279819258
309071.8688964844	6.526718917693963	-0.035301330443234	65.32261279819258
309080.9631347656	6.528089228640703	-0.0304277800854734	65.32261279819258
309090.0573730469	6.518785538528626	-0.03457308955169067	65.32261279819258
309099.1516113281	6.51222247031003	-0.04475797683670894	65.32261279819258
309108.2458496094	6.511717618908599	-0.0419566039760505	65.32261279819258
309117.3400878906	6.531767431708269	-0.0316783833822392	65.32261279819258
309126.4343261719	6.527944985383152	-0.0173765681372639	65.32261279819258
309135.5285644531	6.527944985383152	-0.02708121968087761	65.32261279819258
309144.6228027344	6.504144847887141	-0.03518105812926282	65.32261279819258
309153.7170410156	6.497509658039768	-0.05133316795197397	65.32261279819258
309162.8112792969	6.477820453383977	-0.05900769020067066	65.32261279819258
309171.9055175781	6.481282291565215	-0.06089726513540003	65.32261279819258
309180.9997558594	6.486114440693193	-0.05218307253226531	65.32261279819258
309190.0939941406	6.48308533228461	-0.04250088198963778	65.32261279819258
309199.1882324219	6.492389022396687	-0.04304351599881465	65.32261279819258
309208.2824707031	6.487268386753605	-0.02946419834765989	65.32261279819258
309217.3767089844	6.48084956179256	-0.03918768100710915	65.32261279819258
309226.4709472656	6.396683621011213	-0.08135896194258012	65.32261279819258
309235.5651855469	6.309993423222712	-0.1689945946580015	65.32261279819258
309244.6594238281	6.127309337533634	-0.2884254471782202	65.32261279819258
309253.7536621094	6.120818390943812	-0.3553708726238311	65.32261279819258
309262.8479003906	6.465992506264747	-0.1121801607174736	65.32261279819258
309271.9421386719	7.326042929416053	0.5798445802566274	65.32261279819258
309281.0363769531	7.307868278964554	0.9582771645884114	65.32261279819258
309290.1306152344	6.696421110203399	0.3620960211702214	65.32261279819258
309299.2248535156	6.579151341813963	-0.07901625092501555	65.32261279819258
309308.3190917969	6.508327902356137	0.01836263115245876	65.32261279819258
309317.4133300781	6.496716320123234	-0.1010622095886431	65.32261279819258
309326.5075683594	6.469021614673331	-0.07846407672465411	65.32261279819258
309335.6018066406	6.470031317476192	-0.07645882504769257	65.32261279819258
309344.6960449219	6.469959195847416	-0.1001364655062815	65.32261279819258
309353.7902832031	6.482652602511955	-0.03950994762963566	65.32261279819258
309362.8845214844	6.472844060998447	-0.08175791366228549	65.32261279819258
309371.9787597656	6.475296196376824	-0.04028993982627369	65.32261279819258
309381.0729980469	6.465415533234541	-0.06820015274697776	65.32261279819258
309390.1672363281	6.456472451266343	-0.05443889492125968	65.32261279819258
309399.2614746094	6.46577614137842	-0.05420558245265672	65.32261279819258
309408.3557128906	6.444211774374459	-0.05495207424254298	65.32261279819258
309417.4499511719	6.431734732596246	-0.06054621022813743	65.32261279819258
309426.5441894531	6.400578188965105	-0.08920355790159272	65.32261279819258
309435.6384277344	6.381970808740952	-0.08527089406690273	65.32261279819258
309444.7326660156	6.356223387267994	-0.116641360291937	65.32261279819258
309453.8269042969	6.352184576056549	-0.09758178421345436	65.32261279819258
309462.9211425781	6.34446756177754	-0.1046788039578629	65.32261279819258
309472.0153808594	6.330187479279934	-0.09226227848428992	65.32261279819258
309481.1096191406	6.320667424281529	-0.09043782430946859	65.32261279819258
309490.2038574219	6.338842074733028	-0.05777193298167523	65.32261279819258
309499.2980957031	6.353410643745738	-0.02266070679101609	65.32261279819258
309508.3923339844	6.384206579233001	0.001057277387126345	65.32261279819258
309517.4865722656	6.4229358938856	0.05961732760535488	65.32261279819258
309526.5808105469	6.438225679186068	0.0785294343012502	65.32261279819258
309535.6750488281	6.476594385694789	0.1142963740629999	65.32261279819258
309544.7692871094	6.490513860048516	0.1373352429543166	65.32261279819258
309553.8635253906	6.486186562321969	0.1395094988702247	65.32261279819258
309562.9577636719	6.499529063645491	0.136614228009458	65.32261279819258
309572.0520019531	6.514169754286976	0.1568436438417594	65.32261279819258
309581.1462402344	6.515035213832285	0.1581683960510393	65.32261279819258
309590.2404785156	6.513520659627994	0.1497833315983493	65.32261279819258
309599.3347167969	6.519506754816384	0.1540656956351136	65.32261279819258
309608.4289550781	6.515612186862492	0.147040275600351	65.32261279819258
309617.5231933594	6.522968592997622	0.1491591849886952	65.32261279819258
309626.6174316406	6.499312698759163	0.1336935032058105	65.32261279819258
309635.7116699219	6.502413928796522	0.1206178835958716	65.32261279819258
309644.8059082031	6.491523562851377	0.117144490051462	65.32261279819258
309653.9001464844	6.495850860577924	0.113257372795986	65.32261279819258
309662.9943847656	6.489432035616879	0.1093369576508274	65.32261279819258
309672.0886230469	6.483734426943592	0.1041343682365194	65.32261279819258
309681.1828613281	6.489504157245655	0.1004063944533162	65.32261279819258
309690.2770996094	6.496211468721803	0.1110278378028644	65.32261279819258
309699.3713378906	6.492533265654238	0.1081322823386045	65.32261279819258
309708.4655761719	6.479695615732148	0.09546254276207053	65.32261279819258
309717.5598144531	6.485393224405435	0.0933082881760488	65.32261279819258
309726.6540527344	6.480561075277457	0.09339384544578552	65.32261279819258
309735.7482910156	6.492893873798117	0.09739259693970184	91.63310961968679
309744.8425292969	6.492749630540565	0.1011523616183938	91.63310961968679
309753.9367675781	6.480921683421336	0.0941181780416579	91.63310961968679
309763.0310058594	6.488782940957897	0.08552492548309834	91.63310961968679
309772.1252441406	6.504433334402244	0.1053021134361152	91.63310961968679
309781.2194824219	6.50450545603102	0.1068191932703822	91.63310961968679
309790.3137207031	6.495850860577924	0.09624529133460211	91.63310961968679
309799.4079589844	6.500466644819576	0.09359585686508989	91.63310961968679
309808.5021972656	6.489071427473	0.08776029525312938	91.63310961968679
309817.5964355469	6.494624792888736	0.08280928072853816	91.63310961968679
309826.6906738281	6.486763535352175	0.07999856244489237	91.63310961968679
309835.7849121094	6.466569479294954	0.0649016095574647	91.63310961968679
309844.8791503906	6.40375154063124	0.01566639242600328	91.63310961968679
309853.9733886719	6.392716931428544	-0.0163139503469227	91.63310961968679
309863.0676269531	6.451207572365711	0.02452874693457338	91.63310961968679
309872.1618652344	6.452577883312451	0.06773442353565315	91.63310961968679
309881.2561035156	6.365094347607416	0.001488533311199133	91.63310961968679
309890.3503417969	6.294343029778365	-0.08029655017088533	91.63310961968679
309899.4445800781	6.11555351204318	-0.1837765666185192	91.63310961968679
309908.5388183594	6.261167080541502	-0.1882850056704865	91.63310961968679
309917.6330566406	6.95822262265952	0.337663675386807	91.63310961968679
309926.7272949219	7.45853036147718	0.9761213972703496	91.63310961968679
309935.8215332031	7.115015043618088	0.8465025064461863	91.63310961968679
309944.9157714844	6.792991971134183	0.316578248959318	91.63310961968679
309954.0100097656	6.690867744787663	0.1569619394429828	91.63310961968679
309963.1042480469	6.55246633916692	0.06660785101143707	91.63310961968679
309972.1984863281	6.530685607276632	-0.05306865741838897	91.63310961968679
309981.2927246094	6.496716320123234	-0.02250749718633162	91.63310961968679
309990.3869628906	6.472771939369672	-0.07322585091238387	91.63310961968679
309999.4812011719	6.479984102247251	-0.06754268107547481	91.63310961968679
310008.5754394531	6.48359018368604	-0.0400881711145437	91.63310961968679
310017.6696777344	6.482580480883179	-0.05409914813760033	91.63310961968679
310026.7639160156	6.465559776492093	-0.03984253955855229	91.63310961968679
310035.8581542969	6.435773543807691	-0.07627547362631185	91.63310961968679
310044.9523925781	6.416589190553331	-0.08107935765148661	91.63310961968679
310054.0466308594	6.385432646922189	-0.1002862609130533	91.63310961968679
310063.1408691406	6.322254100114597	-0.1370594704720348	91.63310961968679
310072.2351074219	6.339851777535889	-0.1442674398796137	91.63310961968679
310081.3293457031	6.350814265109809	-0.1006128296084606	91.63310961968679
310090.4235839844	6.328456560189315	-0.09457000571541013	91.63310961968679
310099.5178222656	6.418680717787828	-0.05943901557944126	91.63310961968679
310108.6120605469	6.356872481926976	-0.005602265554827138	91.63310961968679
310117.7062988281	6.322109856857045	-0.09189519483286231	91.63310961968679
310126.8005371094	6.299680030307774	-0.08700858215745709	91.63310961968679
310135.8947753906	6.289006029248957	-0.07863193624119129	91.63310961968679
310144.9890136719	6.267441662244996	-0.09832683384223739	91.63310961968679
310154.0832519531	6.336894790756082	-0.03483746277782796	91.63310961968679
310163.1774902344	6.372162267227443	0.02301188698218405	91.63310961968679
310172.2717285156	6.360767049880868	0.04379452926851428	91.63310961968679
310181.3659667969	6.357233090070855	0.02123399579936629	91.63310961968679
310190.4602050781	6.373027726772753	0.05139323180314789	91.63310961968679
310199.5544433594	6.367330118099465	0.05646438966957899	91.63310961968679
310208.6486816406	6.319874086364996	0.02812361287218962	91.63310961968679
310217.7429199219	6.38918297161853	0.04948193917771739	91.63310961968679
310226.8371582031	6.410819460251267	0.1140417597385312	91.63310961968679
310235.9313964844	6.432239583997677	0.1284131535192279	91.63310961968679
310245.0256347656	6.415146757977815	0.1152789091211613	91.63310961968679
310254.1198730469	6.412189771198007	0.1176778110770642	92.92371679742887
310263.2141113281	6.390264796050167	0.08887217614497385	92.92371679742887
310272.3083496094	6.384495065748104	0.09036897333552256	92.92371679742887
310281.4025878906	6.356295508896769	0.06524003273817863	92.92371679742887
310290.4968261719	6.347640913443675	0.05427917124915688	92.92371679742887
310299.5910644531	6.435629300550139	0.1033521778142219	92.92371679742887
310308.6853027344	6.422142555969066	0.1508203595011112	92.92371679742887
310317.7795410156	6.42791228627113	0.1224223528224455	92.92371679742887
310326.8737792969	6.421854069453963	0.1198109507177571	92.92371679742887
310335.9680175781	6.420916488279878	0.1277837281008562	92.92371679742887
310345.0622558594	6.395601796579576	0.09026555418507364	92.92371679742887
310354.1564941406	6.413271595629644	0.1053683855254831	92.92371679742887
310363.2507324219	6.424161961574789	0.1084292059589782	92.92371679742887
310372.3449707031	6.440028719905463	0.1284394193432101	92.92371679742887
310381.4392089844	6.426830461839493	0.1170939756821892	92.92371679742887
310390.5334472656	6.436422638466673	0.1106110589784383	92.92371679742887
310399.6276855469	6.45841973524329	0.1298428413403895	92.92371679742887
310408.7219238281	6.461448843651873	0.1327703650818912	92.92371679742887
310417.8161621094	6.463540370886371	0.1300110657751306	92.92371679742887
310426.9104003906	6.448683315358558	0.1115892164537484	92.92371679742887
310436.0046386719	6.436639003353	0.09786830088623767	92.92371679742887
310445.0988769531	6.441326909223427	0.08470517955060095	92.92371679742887
310454.1931152344	6.474070128687636	0.1111012943588667	92.92371679742887
310463.2873535156	6.470319803991295	0.1159014649386651	92.92371679742887
310472.3815917969	6.486907778609726	0.1111775223418477	92.92371679742887
310481.4758300781	6.472050723081914	0.1084238315241818	92.92371679742887
310490.5700683594	6.462891276227389	0.08399346445777095	92.92371679742887
310499.6643066406	6.510419429590635	0.1015591276295811	92.92371679742887
310508.7585449219	6.519939484589039	0.1328977265386573	92.92371679742887
310517.8527832031	6.533426229170112	0.1215028672239069	92.92371679742887
310526.9470214844	6.532272283109699	0.1194178175405111	92.92371679742887
310536.0412597656	6.509626091674101	0.1071800885160991	92.92371679742887
310545.1354980469	6.526358309550084	0.09707552140328628	92.92371679742887
310554.2297363281	6.499817550160594	0.09924526848768712	92.92371679742887
310563.3239746094	6.490153251904637	0.05874572148747984	92.92371679742887
310572.4182128906	6.497004806638337	0.06576232551186347	92.92371679742887
310581.5124511719	6.480561075277457	0.05905243792544279	92.92371679742887
310590.6066894531	6.476810750581116	0.03613810786420674	92.92371679742887
310599.7009277344	6.443923287859356	0.0267198793738068	92.92371679742887
310608.7951660156	6.370359226508048	-0.04018925552758901	92.92371679742887
310617.8894042969	6.277250203758503	-0.1185712739123397	92.92371679742887
310626.9836425781	6.102211010719659	-0.2428783595018196	92.92371679742887
310636.0778808594	6.330259600908709	-0.1892970215159205	92.92371679742887
310645.1721191406	7.066116579308103	0.4025668188565363	92.92371679742887
310654.2663574219	7.258320719995585	0.8707173666815798	92.92371679742887
310663.3605957031	6.87888883100615	0.5311080310906368	92.92371679742887
310672.4548339844	6.659206349755091	0.136982822804089	92.92371679742887
310681.5490722656	6.542152946251982	0.04662351976269549	92.92371679742887
310690.6433105469	6.436639003353	-0.0840526447423751	92.92371679742887
310699.7375488281	6.427335313240923	-0.1224621431768012	92.92371679742887
310708.8317871094	6.418969204302932	-0.1032789302529707	92.92371679742887
310717.9260253906	6.40872793301677	-0.11733325151936	92.92371679742887
310727.0202636719	6.402453351313276	-0.1125994482833709	92.92371679742887
310736.1145019531	6.416733433810882	-0.1013174710260958	92.92371679742887
310745.2087402344	6.403030324343482	-0.09138554013012631	92.92371679742887
310754.3029785156	6.406275797638393	-0.09556854937825024	92.92371679742887
310763.3972167969	6.40375154063124	-0.08445865878040602	92.92371679742887
310772.4914550781	6.395169066806921	-0.08339178980927392	92.92371679742887
310781.5856933594	6.375119254007251	-0.09582310279572971	92.92371679742887
310790.6799316406	6.372162267227443	-0.09542409407144292	92.92371679742887
310799.7741699219	6.348217886473881	-0.1010901445351372	92.92371679742887
310808.8684082031	6.335740844695669	-0.1109118166562942	92.92371679742887
310817.9626464844	6.337688128672616	-0.1040940461051881	92.92371679742887
310827.0568847656	6.308623112275972	-0.1036070126261328	92.92371679742887
310836.1511230469	6.286698137128131	-0.1268604963482583	92.92371679742887
310845.2453613281	6.275735649554211	-0.1242953281425962	92.92371679742887
310854.3395996094	6.267081054101117	-0.1179224928375752	92.92371679742887
310863.4338378906	6.247247606187774	-0.1223832658364464	92.92371679742887
310872.5280761719	6.262321026601915	-0.1069633670601305	92.92371679742887
310881.6223144531	6.254099160921474	-0.08807586024938413	92.92371679742887
310890.7165527344	6.243569403120208	-0.08782992195947567	92.92371679742887
310899.8107910156	6.304079449663097	-0.05095166038574916	92.92371679742887
310908.9050292969	6.329682627878503	0.01764188117923677	92.92371679742887
310917.9992675781	6.349011224390415	0.02803885795294038	92.92371679742887
310927.0935058594	6.373676821431735	0.05467972870609841	92.92371679742887
310936.1877441406	6.405770946236962	0.08972131201633199	92.92371679742887
310945.2819824219	6.411324311652698	0.09820686555624089	92.92371679742887
310954.3762207031	6.420339515249672	0.1056328536757461	92.92371679742887
310963.4704589844	6.42243104248417	0.1020650711912956	92.92371679742887
310972.5646972656	6.425892880665407	0.1065395180219242	82.46979865771812
310981.6589355469	6.435917787065242	0.1046978239558353	82.46979865771812
310990.7531738281	6.449909383047746	0.1174098242475718	82.46979865771812
310999.8474121094	6.438586287329947	0.1106969598789726	82.46979865771812
311008.9416503906	6.432600192141556	0.091998190494579	82.46979865771812
311018.0358886719	6.43389838145952	0.09910657842935305	82.46979865771812
311027.1301269531	6.423368623658255	0.0997765415083671	82.46979865771812
311036.2243652344	6.431085637937264	0.09360239447964544	82.46979865771812
311045.3186035156	6.409521270933303	0.08694989450202648	82.46979865771812
311054.4128417969	6.421204974794981	0.07994756890886542	82.46979865771812
311063.5070800781	6.429354718846645	0.09216372617115716	82.46979865771812
311072.6013183594	6.432095340740125	0.09946576780075429	82.46979865771812
311081.6955566406	6.398847269874486	0.07270386139323995	82.46979865771812
311090.7897949219	6.400794553851433	0.05988430354442127	82.46979865771812
311099.8840332031	6.41832010964395	0.07454343204754517	82.46979865771812
311108.9782714844	6.384278700861777	0.068712817134991	82.46979865771812
311118.0725097656	6.378076240787059	0.03655861967347345	82.46979865771812
311127.1667480469	6.367402239728241	0.04155952344413425	82.46979865771812
311136.2609863281	6.367834969500896	0.038885363522326	82.46979865771812
311145.3552246094	6.390120552792616	0.04989649870970982	82.46979865771812
311154.4494628906	6.356367630525545	0.05605509263604061	82.46979865771812
311163.5437011719	6.325571695038283	0.004811104877505098	82.46979865771812
311172.6379394531	6.384278700861777	0.03979745634120251	82.46979865771812
311181.7321777344	6.356151265639218	0.0673385854873246	82.46979865771812
311190.8264160156	6.342520277800594	0.02494747695926812	82.46979865771812
311199.9206542969	6.333577195832396	0.02777700196579151	82.46979865771812
311209.0148925781	6.347929399958778	0.03854777243091492	82.46979865771812
311218.1091308594	6.338842074733028	0.04031083267110217	82.46979865771812
311227.2033691406	6.316844977956412	0.02965435813561294	82.46979865771812
311236.2976074219	6.266720445957238	-0.01061168852467956	82.46979865771812
311245.3918457031	6.263691337548655	-0.02530296692294369	82.46979865771812
311254.4860839844	6.273499879062162	-0.005691403720555504	82.46979865771812
311263.5803222656	6.255469471868214	-0.001477974276400954	82.46979865771812
311272.6745605469	6.252945214861062	-0.01156772910386408	82.46979865771812
311281.7687988281	6.28157750148505	0.01741096315142972	82.46979865771812
311290.8630371094	6.348001521587554	0.07674216238458367	82.46979865771812
311299.9572753906	6.364301009690882	0.1178552283557557	82.46979865771812
311309.0515136719	6.409521270933303	0.1387637794742254	82.46979865771812
311318.1457519531	6.413704325402299	0.1600323532795714	82.46979865771812
311327.2399902344	6.433754138201969	0.1631169507351643	82.46979865771812
311336.3342285156	6.459717924561254	0.1751333946950895	82.46979865771812
311345.4284667969	6.460583384106563	0.1886546726907534	82.46979865771812
311354.5227050781	6.491379319593825	0.1801576363038795	82.46979865771812
311363.6169433594	6.531695310079493	0.2198063457413227	82.46979865771812
311372.7111816406	6.501115739478558	0.2041836309905045	82.46979865771812
311381.8054199219	6.517992200612093	0.1703224777539974	82.46979865771812
311390.8996582031	6.498591482471404	0.1754085327276417	82.46979865771812
311399.9938964844	6.458780343387168	0.119147055252212	82.46979865771812
311409.0881347656	6.401155161995312	0.06285024326234708	82.46979865771812
311418.1823730469	6.28705874527201	-0.02530255546704997	82.46979865771812
311427.2766113281	6.130626932457321	-0.1686527681160786	82.46979865771812
311436.3708496094	6.114038957838888	-0.2291178616215873	82.46979865771812
311445.4650878906	7.120135679261169	0.347478681103948	82.46979865771812
311454.5593261719	7.186343334477346	0.9820841063317343	82.46979865771812
311463.6535644531	6.829413393665957	0.4992039934241673	82.46979865771812
311472.7478027344	6.581459233934789	0.1105416457557127	82.46979865771812
311481.8420410156	6.452505761683675	0.0586768039422565	82.46979865771812
311490.9362792969	6.36776284787212	-0.1534212726313493	82.46979865771812
311500.0305175781	6.334659020264033	-0.09768634260279602	82.46979865771812
311509.1247558594	6.2701101625097	-0.2264319283164248	82.46979865771812
311518.2189941406	6.258354337019246	-0.2533724800273264	82.46979865771812
311527.3132324219	6.315330423752121	-0.1878182645350972	82.46979865771812
311536.4074707031	6.250853687626564	-0.1944215817295928	82.46979865771812
311545.5017089844	6.177073261388929	-0.2463698780497828	82.46979865771812
311554.5959472656	6.237655429560594	-0.2555023317058845	82.46979865771812
311563.6901855469	6.243425159862657	-0.1372481103764783	82.46979865771812
311572.7844238281	6.233905104864252	-0.1879614229436013	82.46979865771812
311581.8786621094	6.235852388841199	-0.1416107189893223	82.46979865771812
311590.9729003906	6.253738552777596	-0.1289075511166968	82.46979865771812
311600.0671386719	6.289655123907939	-0.08610286312077642	82.46979865771812
311609.1613769531	6.287275110158338	-0.04784759649941679	82.46979865771812
311618.2556152344	6.256984026072506	-0.08309983883730734	82.46979865771812
311627.3498535156	6.251719147171873	-0.0697050739423513	82.46979865771812
311636.4440917969	6.252656728345959	-0.07449685018408869	82.46979865771812
311645.5383300781	6.192002438545519	-0.07714973118348401	82.46979865771812
311654.6325683594	6.21493711649622	-0.1063987959294397	82.46979865771812
311663.7268066406	6.228135374562189	-0.04276762791459728	82.46979865771812
311672.8210449219	6.253377944633717	-0.02428231568298136	82.46979865771812
311681.9152832031	6.257705242360264	-0.003762090263069059	82.46979865771812
311691.0095214844	6.270759257168682	0.0215333809451955	82.46979865771812
311700.1037597656	6.296867286785518	0.03294487355136027	82.46979865771812
311709.1979980469	6.346847575527141	0.09654146532506142	82.46979865771812
311718.2922363281	6.362209482456384	0.1135795730634581	82.46979865771812
311727.3864746094	6.374181672833165	0.1304342725026968	82.46979865771812
311736.4807128906	6.416228582409452	0.1476576048111842	82.46979865771812
311745.5749511719	6.443202071571598	0.1874486780933618	82.46979865771812
311754.6691894531	6.457121545925325	0.191395174594843	82.46979865771812
311763.7634277344	6.475007709861721	0.1946293444040766	82.46979865771812
311772.8576660156	6.496355711979355	0.212103494054749	82.46979865771812
311781.9519042969	6.492749630540565	0.1998700148898285	82.46979865771812
311791.0461425781	6.522247376709864	0.2069390996253705	82.46979865771812
311800.1403808594	6.506236375121639	0.199193794524173	82.46979865771812
311809.2346191406	6.489359913988103	0.1679299267956585	82.46979865771812
311818.3288574219	6.495346009176494	0.1495458869045568	82.46979865771812
311827.4230957031	6.476161655922134	0.1452846665756966	82.46979865771812
311836.5173339844	6.487340508382381	0.1215098748734285	82.46979865771812
311845.6115722656	6.483445940428489	0.1281483636303027	82.46979865771812
311854.7058105469	6.486402927208296	0.1167480909194383	82.46979865771812
311863.8000488281	6.480921683421336	0.1040469100308639	82.46979865771812
311872.8942871094	6.498014509441198	0.1119148788307213	82.46979865771812
311881.9885253906	6.489215670730552	0.1009367317515003	82.46979865771812
311891.0827636719	6.437432341269535	0.06729776303872727	82.46979865771812
311900.1770019531	6.452866369827554	0.03243941042868899	82.46979865771812
311909.2712402344	6.477892575012753	0.07449334603603147	82.46979865771812
311918.3654785156	6.477531966868874	0.07380769414943528	82.46979865771812
311927.4597167969	6.490513860048516	0.06764645568013186	82.46979865771812
311936.5539550781	6.481138048307663	0.07502640411509842	82.46979865771812
311945.6481933594	6.469310101188434	0.04484337748074927	82.46979865771812
311954.7424316406	6.480200467133578	0.0506385874936318	82.46979865771812
311963.8366699219	6.4685167632719	0.04470664115277186	82.46979865771812
311972.9309082031	6.457482154069204	0.02689463825558429	82.46979865771812
311982.0251464844	6.457987005470635	0.02040781845265114	82.46979865771812
311991.1193847656	6.442913585056495	0.01432696155238365	82.46979865771812
312000.2136230469	6.429138353960318	-0.005685155174335884	82.46979865771812
312009.3078613281	6.447529369298145	-0.0001090639776934943	82.46979865771812
312018.4020996094	6.464333708802904	0.02444353634876684	82.46979865771812
312027.4963378906	6.464333708802904	0.02455453278892941	82.46979865771812
312036.5905761719	6.470247682362519	0.024935001860271	82.46979865771812
312045.6848144531	6.449188166759988	0.01474182626657652	82.46979865771812
312054.7790527344	6.450630599335504	0.0004141560861007153	82.46979865771812
312063.8732910156	6.443995409488132	0.001709696465556154	82.46979865771812
312072.9675292969	6.455462748463482	0.004076335754868687	82.46979865771812
312082.0617675781	6.441976003882409	0.001606656262719253	82.46979865771812
312091.1560058594	6.441976003882409	-0.005979589128713173	82.46979865771812
312100.2502441406	6.439091138731378	-0.007853706772254948	82.46979865771812
312109.3444824219	6.440028719905463	-0.004564188056552702	82.46979865771812
312118.4387207031	6.42841713767256	-0.01391572395693721	82.46979865771812
312127.5329589844	6.404112148775119	-0.02957269086315063	82.46979865771812
312136.6271972656	6.335163871665463	-0.07839528462249981	82.46979865771812
312145.7214355469	6.204263115437403	-0.1778925966338855	82.46979865771812
312154.8156738281	6.071342953603621	-0.2988467802444343	82.46979865771812
312163.9099121094	6.182410261918338	-0.2682950391056866	82.46979865771812
312173.0041503906	6.831288556014128	0.1988053785774842	82.46979865771812
312182.0983886719	7.030416373064086	0.6585282996384703	82.46979865771812
312191.1926269531	6.726712194289231	0.4106439360318686	82.46979865771812
312200.2868652344	6.578069517382327	0.08602764231795701	82.46979865771812
312209.3811035156	6.485465346034211	0.0577137714543755	82.46979865771812
312218.4753417969	6.440317206420566	-0.05059804725691937	82.46979865771812
312227.5695800781	6.422358920855394	-0.05227921741777554	82.46979865771812
312236.6638183594	6.421493461310084	-0.05346239287728687	82.46979865771812
312245.7580566406	6.40598731112329	-0.07012857619043983	82.46979865771812
312254.8522949219	6.403390932487361	-0.057745647298686	82.46979865771812
312263.9465332031	6.398126053586728	-0.07545613585894445	82.46979865771812
312273.0407714844	6.409377027675752	-0.0474384839535387	82.46979865771812
312282.1350097656	6.386153863209947	-0.06520444965785394	82.46979865771812
312291.2292480469	6.377066537984198	-0.06994660234595507	82.46979865771812
312300.3234863281	6.377427146128077	-0.07109279727738779	82.46979865771812
312309.4177246094	6.36776284787212	-0.06491874599237051	82.46979865771812
312318.5119628906	6.345549386209177	-0.1022839060403206	82.46979865771812
312327.6062011719	6.341582696626508	-0.1368194447746185	82.46979865771812
312336.7004394531	6.328600803446866	-0.112186695156331	82.46979865771812
312345.7946777344	6.306387341783922	-0.1295123732417523	82.46979865771812
312354.8889160156	6.301915800799823	-0.1271079030597959	82.46979865771812
312363.9831542969	6.278909001220346	-0.1229923118614091	82.46979865771812
312373.0773925781	6.272418054630525	-0.1291793442585116	82.46979865771812
312382.1716308594	6.253233701376165	-0.1216297734840996	82.46979865771812
312391.2658691406	6.266143472927031	-0.1110263767289369	82.46979865771812
312400.3601074219	6.270903500426234	-0.08335258363907158	82.46979865771812
312409.4543457031	6.295352732581226	-0.05498594891700806	82.46979865771812
312418.5485839844	6.323191681288682	-0.01883909372784386	82.46979865771812
312427.6428222656	6.350742143481034	0.02154598782536237	82.46979865771812
312436.7370605469	6.382115051998503	0.05029555639785093	82.46979865771812
312445.8312988281	6.408944297903097	0.08652647130347346	82.46979865771812
312454.9255371094	6.420123150363344	0.1013050366383125	82.46979865771812
312464.0197753906	6.42019527199212	0.102845473728882	82.46979865771812
312473.1140136719	6.431806854225022	0.1087913316308447	82.46979865771812
312482.2082519531	6.431374124452367	0.11241511925377	82.46979865771812
312491.3024902344	6.433249286800538	0.1116433031228406	82.46979865771812
312500.3967285156	6.440461449678118	0.1120611993467785	82.46979865771812
312509.4909667969	6.444644504147114	0.1205516317070827	82.46979865771812
312518.5852050781	6.444283896003235	0.1147101634029746	82.46979865771812
312527.6794433594	6.447817855813248	0.1162779003704065	82.46979865771812
312536.7736816406	6.445726328578751	0.1138435514233509	82.46979865771812
312545.8679199219	6.439812355019136	0.1059354124419214	82.46979865771812
312554.9621582031	6.446159058351405	0.1053027941513142	82.46979865771812
312564.0563964844	6.436422638466673	0.1021005403699755	82.46979865771812
312573.1506347656	6.436566881724224	0.09399237823708576	82.46979865771812
312582.2448730469	6.431951097482574	0.09082694465381939	82.46979865771812
312591.3391113281	6.439956598276687	0.09374339203123777	82.46979865771812
312600.4333496094	6.429426840475421	0.08897712784673846	82.46979865771812
312609.5275878906	6.436422638466673	0.08673134197573228	82.46979865771812
312618.6218261719	6.438009314299741	0.09029830477781921	82.46979865771812
312627.7160644531	6.439307503617705	0.09185642433464683	82.46979865771812
312636.8103027344	6.437865071042189	0.08674098766847407	82.46979865771812
312645.9045410156	6.430220178391955	0.08335718750452503	82.46979865771812
312654.9987792969	6.431662610967471	0.07670344914836433	82.46979865771812
312664.0930175781	6.428994110702766	0.07805016923117784	82.46979865771812
312673.1872558594	6.438009314299741	0.08044867175192993	82.46979865771812
312682.2814941406	6.429498962104197	0.07895180626185	82.46979865771812
312691.3757324219	6.438586287329947	0.07849509651741139	82.46979865771812
312700.4699707031	6.434042624717072	0.07917163679758818	82.46979865771812
312709.5642089844	6.432744435399108	0.07649697342083969	82.46979865771812
312718.6584472656	6.432455948884004	0.0708848359716435	82.46979865771812
312727.7526855469	6.443995409488132	0.08146005252613592	82.46979865771812
312736.8469238281	6.448106342328352	0.08484220817396516	82.46979865771812
312745.9411621094	6.445798450207526	0.08408479505191027	82.46979865771812
312755.0354003906	6.453010613085105	0.08268001250272045	82.46979865771812
312764.1296386719	6.440966301079548	0.07967988495884418	82.46979865771812
312773.2238769531	6.4479620990708	0.07295043493043418	82.46979865771812
312782.3181152344	6.441182665965876	0.07312433590641398	82.46979865771812
312791.4123535156	6.447529369298145	0.07224983456194695	82.46979865771812
312800.5065917969	6.431878975853798	0.06269160727147989	82.46979865771812
312809.6008300781	6.431518367709919	0.05616531282734172	82.46979865771812
312818.6950683594	6.434619597747278	0.0547829662914123	82.46979865771812
312827.7893066406	6.439163260360154	0.06401473149152978	82.46979865771812
312836.8835449219	6.449765139790195	0.06485400983716094	82.46979865771812
312845.9777832031	6.438009314299741	0.06659270495648342	82.46979865771812
312855.0720214844	6.438081435928517	0.05345485719554579	82.46979865771812
312864.1662597656	6.433970503088296	0.05320108846888463	82.46979865771812
312873.2604980469	6.440028719905463	0.05577223470434647	82.46979865771812
312882.3547363281	6.43202321911135	0.04934406081877664	82.46979865771812
312891.4489746094	6.439091138731378	0.05251601425107928	82.46979865771812
312900.5432128906	6.435196570777484	0.04914524768791054	82.46979865771812
312909.6374511719	6.432311705626453	0.04850687325582663	82.46979865771812
312918.7316894531	6.430003813505627	0.04023103593830486	82.46979865771812
312927.8259277344	6.434980205891157	0.0461077262675131	82.46979865771812
312936.9201660156	6.394592093776715	0.02440359719520427	82.46979865771812
312946.0144042969	6.309560693450057	-0.04577216182679123	82.46979865771812
312955.1086425781	6.191713952030415	-0.1437689752737008	82.46979865771812
312964.2028808594	6.100263726742712	-0.2325297137895658	82.46979865771812
312973.2971191406	6.292828475574074	-0.1380123953490683	82.46979865771812
312982.3913574219	6.984186409018804	0.3808629057860634	82.46979865771812
312991.4855957031	6.999548315948048	0.7424865934081193	82.46979865771812
313000.5798339844	6.689497433840923	0.359295514280889	82.46979865771812
313009.6740722656	6.566313691891873	0.1040098813593885	82.46979865771812
313018.7683105469	6.480921683421336	0.08757333901392719	82.46979865771812
313027.8625488281	6.446447544866508	-0.03406196266891327	82.46979865771812
313036.9567871094	6.433970503088296	-0.002259527630738691	82.46979865771812
313046.0510253906	6.413487960515972	-0.03978959451339226	82.46979865771812
313055.1452636719	6.408367324872891	-0.04600628421334906	82.46979865771812
313064.2395019531	6.402453351313276	-0.03613963484061843	82.46979865771812
313073.3337402344	6.402164864798173	-0.05315727875013452	82.46979865771812
313082.4279785156	6.389904187906288	-0.03528863879884826	82.46979865771812
313091.5222167969	6.393798755860181	-0.05703505648025437	82.46979865771812
313100.6164550781	6.384855673891983	-0.09346486517946004	82.46979865771812
313109.7106933594	6.380312011279108	-0.1778326232667755	82.46979865771812
313118.8049316406	6.363219185259245	-0.1453648485755019	82.46979865771812
313127.8991699219	6.360117955221886	-0.1506648131030726	82.46979865771812
313136.9934082031	6.345044534807746	-0.1635236991179808	82.46979865771812
313146.0876464844	6.335452358180566	-0.1437993560577163	82.46979865771812
313155.1818847656	6.322109856857045	-0.1693922266203303	82.46979865771812
313164.2761230469	6.297155773300621	-0.1543256751549004	82.46979865771812
313173.3703613281	6.295424854210002	-0.1743076093339598	82.46979865771812
313182.4645996094	6.283308420575669	-0.1514355046487993	82.46979865771812
313191.5588378906	6.279053244477898	-0.1536490297123698	82.46979865771812
313200.6530761719	6.270687135539906	-0.1477542213691225	82.46979865771812
313209.7473144531	6.28929451576406	-0.1201294692763582	82.46979865771812
313218.8415527344	6.305882490382492	-0.09873045754349658	82.46979865771812
313227.9357910156	6.326365032954817	-0.05818209245935513	82.46979865771812
313237.0300292969	6.354131860033496	-0.03983157573809858	82.46979865771812
313246.1242675781	6.368844672303757	-0.000386271447798325	82.46979865771812
313255.2185058594	6.406852770668599	0.01766926546596415	82.46979865771812
313264.3127441406	6.415507366121694	0.05069385882372179	82.46979865771812
313273.4069824219	6.429426840475421	0.05414794503449169	82.46979865771812
313282.5012207031	6.427191069983372	0.05595037006702629	82.46979865771812
313291.5954589844	6.43836992244362	0.06549836060028716	82.46979865771812
313300.6896972656	6.433537773315641	0.05771300531049652	82.46979865771812
313309.7839355469	6.437937192670965	0.06516210769534729	82.46979865771812
313318.8781738281	6.437504462898311	0.05600939693186832	82.46979865771812
313327.9724121094	6.444860869033441	0.0669712166192025	82.46979865771812
313337.0666503906	6.438802652216275	0.05912475792008739	82.46979865771812
313346.1608886719	6.43526869240626	0.05448049228095962	74.13015609682529
313355.2551269531	6.436711124981776	0.05227025176908953	74.13015609682529
313364.3493652344	6.429859570248076	0.04822855821931879	74.13015609682529
313373.4436035156	6.434980205891157	0.0478985556766485	74.13015609682529
313382.5378417969	6.423224380400703	0.04195392189781873	74.13015609682529
313391.6320800781	6.425820759036632	0.03932057142466686	74.13015609682529
313400.7263183594	6.417526771727416	0.03372851042247899	74.13015609682529
313409.8205566406	6.426686218581941	0.03916738079770681	74.13015609682529
313418.9147949219	6.418536474530277	0.03636053248886949	74.13015609682529
313428.0090332031	6.417310406841088	0.03410116586272829	74.13015609682529
313437.1032714844	6.424234083203564	0.03524990911040676	74.13015609682529
313446.1975097656	6.421926191082739	0.04261937024370688	74.13015609682529
313455.2917480469	6.428561380930112	0.04029173447329007	74.13015609682529
313464.3859863281	6.432383827255229	0.04815240375346348	74.13015609682529
313473.4802246094	6.435340814035036	0.05169927283313998	74.13015609682529
313482.5744628906	6.427695921384802	0.04410175571746035	74.13015609682529
313491.6687011719	6.437215976383207	0.04897153654712786	74.13015609682529
313500.7629394531	6.428345016043784	0.04622440026792384	74.13015609682529
313509.8571777344	6.426109245551735	0.04145156576976135	74.13015609682529
313518.9514160156	6.429715326990524	0.0399615910707769	74.13015609682529
313528.0456542969	6.432455948884004	0.0484602365806914	74.13015609682529
313537.1398925781	6.428994110702766	0.04293649673348528	74.13015609682529
313546.2341308594	6.426469853695614	0.04116125083720422	74.13015609682529
313555.3283691406	6.427695921384802	0.04100077996512193	74.13015609682529
313564.4226074219	6.421854069453963	0.03797869423020325	74.13015609682529
313573.5168457031	6.432095340740125	0.04189005407701817	74.13015609682529
313582.6110839844	6.423008015514376	0.04211592364180891	74.13015609682529
313591.7053222656	6.427191069983372	0.03927988973578526	74.13015609682529
313600.7995605469	6.421637704567636	0.03795389353053774	74.13015609682529
313609.8937988281	6.429354718846645	0.04217403676122669	74.13015609682529
313618.9880371094	6.421421339681309	0.03933940893552575	74.13015609682529
313628.0822753906	6.422142555969066	0.03760146134800946	74.13015609682529
313637.1765136719	6.426109245551735	0.03886432006262755	74.13015609682529
313646.2707519531	6.419401934075586	0.04085767243369422	74.13015609682529
313655.3649902344	6.419041325931707	0.03319127047788339	74.13015609682529
313664.4592285156	6.421854069453963	0.03822433490805641	74.13015609682529
313673.5534667969	6.425604394150304	0.04293805458688063	74.13015609682529
313682.6477050781	6.419618298961914	0.03865542383630018	74.13015609682529
313691.7419433594	6.423657110173358	0.04033788945759551	74.13015609682529
313700.8361816406	6.418103744757622	0.03789651705248265	74.13015609682529
313709.9304199219	6.420555880135999	0.03855158241347102	74.13015609682529
313719.0246582031	6.424089839946013	0.04026474670625235	74.13015609682529
313728.1188964844	6.423584988544582	0.04476057156810151	74.13015609682529
313737.2131347656	6.414786149833936	0.03601201343918555	74.13015609682529
313746.3073730469	6.420483758507223	0.03611134293889056	74.13015609682529
313755.4016113281	6.421781947825187	0.04256176805312546	74.13015609682529
313764.4958496094	6.410026122334734	0.03447748767643476	74.13015609682529
313773.5900878906	6.420700123393551	0.03417274734795611	74.13015609682529
313782.6843261719	6.420339515249672	0.04351631478498046	74.13015609682529
313791.7785644531	6.425604394150304	0.04366012368225249	74.13015609682529
313800.8728027344	6.415218879606591	0.03942269652627492	74.13015609682529
313809.9670410156	6.422575285741721	0.03917924082232849	74.13015609682529
313819.0612792969	6.412334014455559	0.03698167632168348	74.13015609682529
313828.1555175781	6.416228582409452	0.03473411238855859	74.13015609682529
313837.2497558594	6.415940095894348	0.03585355072737086	74.13015609682529
313846.3439941406	6.409449149304527	0.03525955879539311	74.13015609682529
313855.4382324219	6.417598893356192	0.03193005589950027	74.13015609682529
313864.5324707031	6.415940095894348	0.04137406682347168	74.13015609682529
313873.6267089844	6.416733433810882	0.03648629894155193	74.13015609682529
313882.7209472656	6.399279999647141	0.02770295012647017	74.13015609682529
313891.8151855469	6.361488266168626	0.000174604456208486	74.13015609682529
313900.9094238281	6.266143472927031	-0.07136536017408682	74.13015609682529
313910.0036621094	6.138416068365106	-0.1759256263301358	74.13015609682529
313919.0979003906	6.112740768520924	-0.2344927221516509	74.13015609682529
313928.1921386719	7.116818084337483	0.339039130479617	74.13015609682529
313937.2863769531	7.253200084352504	1.010785386376393	74.13015609682529
313946.3806152344	6.863094194304251	0.557615474467118	74.13015609682529
313955.4748535156	6.620693399988818	0.1276841186531243	74.13015609682529
313964.5690917969	6.503712118114486	0.09696228703657285	74.13015609682529
313973.6633300781	6.439163260360154	-0.09270377844306628	74.13015609682529
313982.7575683594	6.408655811387994	-0.0446304661750091	74.13015609682529
313991.8518066406	6.391562985368132	-0.1091172093034652	74.13015609682529
314000.9460449219	6.378364727302162	-0.09887500266149613	74.13015609682529
314010.0402832031	6.385649011808517	-0.08379733391622285	74.13015609682529
314019.1345214844	6.368772550674981	-0.1094610283576253	74.13015609682529
314028.2287597656	6.36725799647069	-0.07484182774616009	74.13015609682529
314037.3229980469	6.362714333857815	-0.1127897854673199	74.13015609682529
314046.4172363281	6.355646414237787	-0.06799958380558074	74.13015609682529
314055.5114746094	6.361560387797402	-0.09942728098309685	74.13015609682529
314064.6057128906	6.343890588747334	-0.06877985000287028	74.13015609682529
314073.6999511719	6.333216587688517	-0.09534273255559769	74.13015609682529
314082.7941894531	6.319729843107444	-0.09459710655877654	74.13015609682529
314091.8884277344	6.318792261933359	-0.08236163556344418	74.13015609682529
314100.9826660156	6.30025700333798	-0.1458148779768473	74.13015609682529
314110.0769042969	6.293044840460401	-0.1773128243590292	74.13015609682529
314119.1711425781	6.281361136598723	-0.1750432955676669	74.13015609682529
314128.2653808594	6.26376345917743	-0.1533140079463357	74.13015609682529
314137.3596191406	6.249627619937375	-0.1847485823408528	74.13015609682529
314146.4538574219	6.25366643114882	-0.1441463141366364	74.13015609682529
314155.5480957031	6.258065850504143	-0.1417400622815043	74.13015609682529
314164.6423339844	6.261527688685381	-0.1148225242691105	74.13015609682529
314173.7365722656	6.286121164097925	-0.08770741834964971	74.13015609682529
314182.8308105469	6.305089152465958	-0.05843626292975297	74.13015609682529
314191.9250488281	6.345188778065298	-0.009385622142099849	74.13015609682529
314201.0192871094	6.380239889650333	0.02070255784302209	74.13015609682529
314210.1135253906	6.375191375636027	0.05191111622148179	74.13015609682529
314219.2077636719	6.37908594358992	0.02841279178025601	74.13015609682529
314228.3020019531	6.400289702450002	0.06271152788941069	74.13015609682529
314237.3962402344	6.40649216252472	0.06948215935075758	74.13015609682529
314246.4904785156	6.389110849989755	0.06104512362190451	74.13015609682529
314255.5847167969	6.391779350254459	0.05453067207803369	74.13015609682529
314264.6789550781	6.361199779653523	0.04015103871123509	74.13015609682529
314273.7731933594	6.354925197950029	0.02628138283945359	74.13015609682529
314282.8674316406	6.355285806093908	0.02393192170908034	74.13015609682529
314291.9616699219	6.36502222597864	0.04508902370245239	74.13015609682529
314301.0559082031	6.354564589806151	0.03489419511191941	74.13015609682529
314310.1501464844	6.361776752683729	0.04440828786635277	74.13015609682529
314319.2443847656	6.369421645333963	0.05041650811384153	74.13015609682529
314328.3386230469	6.383990214346674	0.06822263168769807	74.13015609682529
314337.4328613281	6.37410955120439	0.06840447869117258	74.13015609682529
314346.5270996094	6.372594997000098	0.05948895218648815	74.13015609682529
314355.6213378906	6.371152564424582	0.06436608180751421	74.13015609682529
314364.7155761719	6.368772550674981	0.06048770710100535	74.13015609682529
314373.8098144531	6.380600497794212	0.06990711463134874	74.13015609682529
314382.9040527344	6.369782253477842	0.07011885885699115	74.13015609682529
314391.9982910156	6.373965307946838	0.06603514914782324	74.13015609682529
314401.0925292969	6.372018023969892	0.0690670128826609	74.13015609682529
314410.1867675781	6.382764146657485	0.07655787788824128	74.13015609682529
314419.2810058594	6.380312011279108	0.07854489246918399	74.13015609682529
314428.3752441406	6.389976309535064	0.08372338999403242	74.13015609682529
314437.4694824219	6.390913890709149	0.08735830079414297	74.13015609682529
314446.5637207031	6.384999917149535	0.08443375322904076	74.13015609682529
314455.6579589844	6.393798755860181	0.08285861643484868	74.13015609682529
314464.7521972656	6.396250891238558	0.09206571009972736	74.13015609682529
314473.8464355469	6.392428444913441	0.0875082194494043	74.13015609682529
314482.9406738281	6.387379930899136	0.07948226239363063	74.13015609682529
314492.0349121094	6.396539377753661	0.08514465445217331	74.13015609682529
314501.1291503906	6.391346620481804	0.08409024188906	74.13015609682529
314510.2233886719	6.395169066806921	0.08296253913707261	74.13015609682529
314519.3176269531	6.391779350254459	0.08082239706827216	74.13015609682529
314528.4118652344	6.39004843116384	0.07894996997347344	74.13015609682529
314537.5061035156	6.394592093776715	0.07721976678122745	74.13015609682529
314546.6003417969	6.400073337563675	0.08499477649505764	74.13015609682529
314555.6945800781	6.396323012867334	0.08189923108701203	74.13015609682529
314564.7888183594	6.399424242904693	0.07891830497048559	74.13015609682529
314573.8830566406	6.409304906046976	0.0870461532263084	74.13015609682529
314582.9772949219	6.397044229155092	0.08194713205461247	74.13015609682529
314592.0715332031	6.402020621540621	0.07440657723752613	74.13015609682529
314601.1657714844	6.40101091873776	0.07761289963864812	74.13015609682529
314610.2600097656	6.410026122334734	0.08055305488441111	74.13015609682529
314619.3542480469	6.392284201655889	0.07168410356965993	74.13015609682529
314628.4484863281	6.395601796579576	0.06268856913506807	74.13015609682529
