Time Stamp	ECG LL-RA	ECG LL-RA Filtered	Heart Rate
505645.5688476563	5.022766592832398	0.04201120048629584	-1
505654.6630859375	4.736804334736387	-0.1100061048168957	-1
505663.7573242188	4.736804334736387	-0.27572101164617	-1
505672.8515625	4.310926116815343	-0.4045016857825874	-1
505681.9458007813	4.310926116815343	-0.6359787381726081	-1
505691.0400390625	4.968314763106676	-0.1509306393377143	-1
505700.1342773438	6.179669640024858	0.9607283534714199	-1
505709.228515625	6.945601337623756	1.80785499120699	-1
505718.3227539063	4.226904419291547	0.5005449768833101	-1
505727.4169921875	3.649210172797462	-1.724137819399657	-1
505736.5112304688	3.823456027919773	-1.086241474145314	-1
505745.60546875	3.848842841248851	-0.7958334291760693	-1
505754.6997070313	3.817253567845055	-1.073972011019676	-1
505763.7939453125	3.752704710090722	-0.6464054979630719	-1
505772.8881835938	3.724072423466733	-0.9581547986181629	-1
505781.982421875	3.812637783603404	-0.5720564102057999	-1
505791.0766601563	3.743545263236197	-0.6145906738827327	-1
505800.1708984375	3.740948884600268	-0.7091671156222702	-1
505809.2651367188	3.693276487979471	-0.7374972256470385	-1
505818.359375	3.75155076403031	-0.6973589082907774	-1
505827.4536132813	3.664427836469154	-0.4893087187758217	-1
505836.5478515625	3.703373516008081	-0.6238890671463611	-1
505845.6420898438	3.694069825896004	-0.3476275768117684	-1
505854.736328125	3.717437233619361	-0.4048864088963811	-1
505863.8305664063	3.622236683635316	-0.3000050101583359	-1
505872.9248046875	3.66449995809793	-0.2928948987431124	-1
505882.0190429688	3.656999308705248	-0.2056461148563846	-1
505891.11328125	3.61891908871163	-0.1224940754045493	-1
505900.2075195313	3.707628692105853	-0.1244966545924159	-1
505909.3017578125	3.651229578403184	0.06841406446063171	-1
505918.3959960938	3.747295587932538	0.0116765907986356	-1
505927.490234375	3.757681102476252	0.2188249417597712	-1
505936.5844726563	3.900626170709869	0.2715181513283905	-1
505945.6787109375	3.89752494067251	0.3948227433496924	-1
505954.7729492188	4.019915344705027	0.4754266666981799	-1
505963.8671875	4.091171513935509	0.5588477346006535	-1
505972.9614257813	4.116486205635811	0.6656201997263516	-1
505982.0556640625	4.246665745576113	0.6593224296170425	-1
505991.1499023438	4.204835200886155	0.7898989304792849	-1
506000.244140625	4.136536018435481	0.623695368805248	-1
506009.3383789063	3.976642367439553	0.5454855653576558	-1
506018.4326171875	3.920603861880763	0.4350794856975593	-1
506027.5268554688	3.732222167518398	0.3241260916817188	-1
506036.62109375	3.68317945995086	0.2518331765738774	-1
506045.7153320313	3.609903885114656	0.200373788738199	-1
506054.8095703125	3.578747341483515	0.2360139435454672	-1
506063.9038085938	3.48801833248357	0.1518642186117047	-1
506072.998046875	3.504678428730778	0.2040498893895104	-1
506082.0922851563	3.498548090284836	0.2244418167930514	-1
506091.1865234375	3.46436243824511	0.2549353853695324	-1
506100.2807617188	3.520328822175124	0.2844454350127651	-1
506109.375	3.439047746544808	0.3162751599903904	-1
506118.4692382813	3.462847884040819	0.3013129589325617	-1
506127.5634765625	3.433278016242745	0.3282260737974789	-1
506136.6577148438	3.501649320322195	0.4017671834410332	-1
506145.751953125	3.415752460450228	0.3798995127461138	-1
506154.8461914063	3.458232099799168	0.4047166798497724	-1
506163.9404296875	3.441427760294409	0.4199605993751452	-1
506173.0346679688	3.402842688899361	0.4366254806631517	-1
506182.12890625	3.493860184414409	0.447202552047696	-1
506191.2231445313	3.465300019419196	0.5428425657792584	-1
506200.3173828125	3.478714642371493	0.5013214836336449	-1
506209.4116210938	3.451092058550365	0.5113023237970857	-1
506218.505859375	3.541965310807862	0.5753939748445225	-1
506227.6000976563	3.483546791499471	0.5675221570077621	-1
506236.6943359375	3.522636714295949	0.5814077605874275	-1
506245.7885742188	3.51080876717672	0.5676174382764275	-1
506254.8828125	3.558553285426293	0.6247479594154042	-1
506263.9770507813	3.491119562520929	0.57179337695735	-1
506273.0712890625	3.531724039521699	0.5739573439653336	-1
506282.1655273438	3.526675525507394	0.5882498979019275	-1
506291.259765625	3.487297116195812	0.5580538657484822	-1
506300.3540039063	3.550836271147284	0.5601603460443886	-1
506309.4482421875	3.485638318733969	0.5684089185689973	-1
506318.5424804688	3.531147066491493	0.5345493459936672	-1
506327.63671875	3.467824276426349	0.5224640710476641	-1
506336.7309570313	3.537277404937435	0.5305031905727192	-1
506345.8251953125	3.468184884570228	0.5043917554176282	-1
506354.9194335938	3.507923902025688	0.500532038113942	-1
506364.013671875	3.508428753427119	0.4899351736343122	-1
506373.1079101563	3.472223695781672	0.4929123088605936	-1
506382.2021484375	3.537638013081314	0.4565666771225077	-1
506391.2963867188	3.508284510169567	0.5099058307398287	-1
506400.390625	3.495879590020131	0.4389031337923975	-1
506409.4848632813	3.454698139989155	0.4008395937661261	-1
506418.5791015625	3.53085857997639	0.4361699603643042	-1
506427.6733398438	3.462126667753061	0.4018196743763075	-1
506436.767578125	3.489677129945413	0.3861511221559607	-1
506445.8618164063	3.479435858659251	0.3605249307943254	-1
506454.9560546875	3.528117958082909	0.4041414378174243	-1
506464.0502929688	3.455996329307119	0.3410369445112259	-1
506473.14453125	3.528911295999443	0.3437487526465468	-1
506482.2387695313	3.554730839101176	0.3868490976427974	-1
506491.3330078125	3.525954309219636	0.3596416489688366	-1
506500.4272460938	3.639762239427834	0.372925890601776	-1
506509.521484375	3.541027729633776	0.3832607902921253	-1
506518.6157226563	3.583146760838838	0.2945456538228408	-1
506527.7099609375	3.52501672804555	0.2849167649225436	-1
506536.8041992188	3.586824963906403	0.2830330739933274	-1
506545.8984375	3.506048739677518	0.2249608926070504	-1
506554.9926757813	3.530930701605166	0.2105225128240812	-1
506564.0869140625	3.526675525507394	0.1743733734340833	-1
506573.1811523438	3.474531587902497	0.1702165311260552	-1
506582.275390625	3.533887688384973	0.1138582173976142	-1
506591.3696289063	3.489677129945413	0.1570139894402877	-1
506600.4638671875	3.476262506993116	0.07881174771794661	-1
506609.5581054688	3.438110165370723	0.0399882603226129	-1
506618.65234375	3.50446206384445	0.07842023852239688	-1
506627.7465820313	3.402409959126706	0.01327358976242698	-1
506636.8408203125	3.509149969714877	0.0315142074205879	-1
506645.9350585938	3.559779353115482	0.09294037560917472	-1
506655.029296875	3.566198178076527	0.1280931657688507	-1
506664.1235351563	3.464578803131438	0.002657108857758118	-1
506673.2177734375	3.496023833277683	-0.01210240552338822	-1
506682.3120117188	3.49811536051218	-0.004051503179676657	-1
506691.40625	3.449649625974849	-0.04242761713317014	-1
506700.5004882813	3.546076243648082	-0.03246868656499	-1
506709.5947265625	3.449793869232401	-0.027296488081655	-1
506718.6889648438	3.520256700546348	-0.07568548993467322	-1
506727.783203125	3.444601111960544	-0.07842741414705653	-1
506736.8774414063	3.543119256868274	-0.06440970079507695	-1
506745.9716796875	3.422459771926376	-0.1100667186765806	-1
506755.0659179688	3.377023145797628	-0.1860543323068625	-1
506764.16015625	3.451957518095675	-0.2031470459483775	-1
506773.2543945313	3.960703487480103	0.1767394503411088	-1
506782.3486328125	5.097051870471463	0.9941059748637482	-1
506791.4428710938	5.728404608774735	1.843623860698141	-1
506800.537109375	3.839106421364119	0.7816134018001885	-1
506809.6313476563	3.183232329277078	-0.9525727066984443	-1
506818.7255859375	3.371902510154547	-0.6606544003467338	-1
506827.8198242188	3.42512827219108	-0.4357161122360087	-1
506836.9140625	3.44654839593749	-0.5856545018775125	-1
506846.0083007813	3.420151879805551	-0.4085522704704672	-1
506855.1025390625	3.511025132063047	-0.5080701973083167	-1
506864.1967773438	3.435441665106018	-0.3908404855661048	-1
506873.291015625	3.516001524448577	-0.4505987682737368	-1
506882.3852539063	3.508356631798343	-0.3862135606509403	-1
506891.4794921875	3.456933910481204	-0.3881113491055147	-1
506900.5737304688	3.561582393834877	-0.4365881768996541	-1
506909.66796875	3.462270911010613	-0.3103459709291198	-1
506918.7622070313	3.54232591895174	-0.4494947498379615	-1
506927.8564453125	3.492345630210117	-0.3244992678703981	-1
506936.9506835938	3.611995412349154	-0.3423601225965703	-1
506946.044921875	3.5204009438039	-0.3158598338333293	-1
506955.1391601563	3.553721136298315	-0.3381673433569649	-1
506964.2333984375	3.570958205575729	-0.3533227595258222	-1
506973.3276367188	3.519102754485936	-0.2904110979918151	-1
506982.421875	3.68678554138965	-0.3332930657602263	-1
506991.5161132813	3.669909080256114	-0.138810205754335	-1
507000.6103515625	3.744050114637627	-0.2273804873692591	-1
507009.7045898438	3.703012907864202	-0.1768691824404838	-1
507018.798828125	3.879494533478562	-0.1190264086977566	-1
507027.8930664063	3.875672087153446	-0.06755133969297046	-1
507036.9873046875	4.033690575801203	0.02090305686118672	-1
507046.0815429688	4.083815107800378	0.03999812928390757	-1
507055.17578125	4.092109095109594	0.09596515253229696	-1
507064.2700195313	4.157739777295563	0.00644280123819755	-1
507073.3642578125	4.192286037479167	0.1092792976145668	-1
507082.4584960938	4.152979749796361	0.003252069288877888	-1
507091.552734375	4.039820914247145	-0.1017741891875358	-1
507100.6469726563	3.996475815352895	-0.1966819319380944	-1
507109.7412109375	3.80448803955174	-0.3509967562503309	-1
507118.8354492188	3.777658793647146	-0.4390396639399911	-1
507127.9296875	3.582930395952511	-0.5662130480450487	-1
507137.0239257813	3.648344713252153	-0.5821714338401867	-1
507146.1181640625	3.540667121489897	-0.5977912468701649	-1
507155.2124023438	3.567063637621837	-0.5961616516813297	-1
507164.306640625	3.592738937466018	-0.5757513862069758	-1
507173.4008789063	3.50994330763141	-0.5395539497930124	-1
507182.4951171875	3.60110504640401	-0.5755932560360956	-1
507191.5893554688	3.54643685179196	-0.4740096983095407	-1
507200.68359375	3.546725338307064	-0.5220659645723295	-1
507209.7778320313	3.474387344644946	-0.5482199710224663	-1
507218.8720703125	3.554298109328522	-0.4744667448802568	-1
507227.9663085938	3.484700737559884	-0.4936548684734229	-1
507237.060546875	3.557110852850777	-0.4258907756827567	-1
507246.1547851563	3.570164867659196	-0.4028323573875452	-1
507255.2490234375	3.50720268573793	-0.3693457834898846	-1
507264.3432617188	3.566703029477958	-0.4116587687162492	-1
507273.4375	3.609615398599553	-0.2773445387902606	-1
507282.5317382813	3.617909385908769	-0.267056247728127	-1
507291.6259765625	3.571318813719608	-0.2961894893232255	-1
507300.7202148438	3.666230877188549	-0.2235430501758148	-1
507309.814453125	3.565837569932648	-0.2437336745996956	-1
507318.9086914063	3.61617846681815	-0.2426293674020934	-1
507328.0029296875	3.582353422922304	-0.2387175984922731	-1
507337.0971679688	3.657359916849127	-0.1698728918989501	-1
507346.19140625	3.560212082888136	-0.2091509304346457	-1
507355.2856445313	3.602042627578095	-0.2074568738569337	-1
507364.3798828125	3.589204977656004	-0.1840201055078543	-1
507373.4741210938	3.536411945392126	-0.1956010864678119	-1
507382.568359375	3.628655508596362	-0.1802624556579005	-1
507391.6625976563	3.593027423981122	-0.1041201482010836	-1
507400.7568359375	3.572400638151245	-0.1531144659477783	-1
507409.8510742188	3.526314917363515	-0.1837035810367223	-1
507418.9453125	3.618558480567751	-0.1057191411454274	-1
507428.0395507813	3.560789055918343	-0.1060428764383803	-1
507437.1337890625	3.587618301822937	-0.09356124734535873	-1
507446.2280273438	3.604350519698921	-0.08247495512214662	-1
507455.322265625	3.563457556183047	-0.05092936433421628	-1
507464.4165039063	3.582209179664753	-0.09635854858365178	-1
507473.5107421875	3.620217278029594	-0.01555039182819491	-1
507482.6049804688	3.627934292308604	0.005189552299725004	-1
507491.69921875	3.582930395952511	-0.02786457440227654	-1
507500.7934570313	3.670413931657545	0.02515708928111669	-1
507509.8876953125	3.59014255883009	0.02275849296242491	-1
507518.9819335938	3.610048128372208	-0.002055696497883584	-1
507528.076171875	3.54867262228401	-0.02502539407155521	-1
507537.1704101563	3.616971804734684	0.01436401693955824	-1
507546.2646484375	3.537926499596417	-0.002188879054585802	-1
507555.3588867188	3.58603162598987	0.001807820881849497	-1
507564.453125	3.605288100873006	0.04279896377192776	-1
507573.5473632813	3.544705932701342	0.04148225620125588	-1
507582.6416015625	3.626852467876967	0.02929576074367698	-1
507591.7358398438	3.589709829057435	0.1018934101584278	-1
507600.830078125	3.600383830116252	0.06210001001118918	-1
507609.9243164063	3.514703335130613	0.02675787774854777	-1
507619.0185546875	3.590286802087641	0.05462926963631733	-1
507628.1127929688	3.527036133651273	0.05174541692736176	-1
507637.20703125	3.562952704781617	0.0676707936228807	-1
507646.3012695313	3.588844369512125	0.08035840548178851	-1
507655.3955078125	3.55689448796445	0.1243848752553804	-1
507664.4897460938	3.542830770353171	0.05289972844628943	-1
507673.583984375	3.590863775117847	0.1201102050719435	-1
507682.6782226563	3.609254790455674	0.1546714321825141	-1
507691.7724609375	3.561798758721204	0.1228529116307289	-1
507700.8666992188	3.629881576285551	0.153009927541261	-1
507709.9609375	3.609903885114656	0.1740500152655795	-1
507719.0551757813	3.668033917907944	0.2037227522267845	-1
507728.1494140625	3.574564287014519	0.1632610693331637	-1
507737.2436523438	3.624977305528797	0.1549078881301487	-1
507746.337890625	3.573193976067779	0.1509985361666532	-1
507755.4321289063	3.618053629166321	0.1629012078348941	-1
507764.5263671875	3.641998009919883	0.1872602724846476	-1
507773.6206054688	3.581848571520874	0.1865179064548875	-1
507782.71484375	3.648921686282359	0.1562183697868583	-1
507791.8090820313	3.597138356821342	0.2042452378718077	-1
507800.9033203125	3.626852467876967	0.1654619728519808	-1
507809.9975585938	3.569876381144093	0.1530581553613808	-1
507819.091796875	3.537133161679884	0.1282287486791245	-1
507828.1860351563	3.404645729618756	0.009519748999863105	-1
507837.2802734375	3.768282981906293	0.1915312804933359	-1
507846.3745117188	4.744737713901724	0.9206769680628893	-1
507855.46875	6.10098494303047	2.133360492621929	-1
507864.5629882813	5.276851091009509	2.109151418046636	-1
507873.6572265625	3.867233856586678	0.4143515525093022	-1
507882.7514648438	3.73835250596434	-0.3049507898389902	-1
507891.845703125	3.717942085020791	0.002743762418438323	-1
507900.9399414063	3.7369821950176	-0.1617373306573471	-1
507910.0341796875	3.580838868718013	-0.1596755344679979	-1
507919.1284179688	3.581704328263322	-0.2360423355086915	-1
507928.22265625	3.592594694208467	-0.2298233891090629	-1
507937.3168945313	3.66587026904467	-0.08727971034406154	-1
507946.4111328125	3.594686221442965	-0.1723848911556054	-1
507955.5053710938	3.62028939965837	-0.1105065102275625	-1
507964.599609375	3.618342115681424	-0.1386814029199505	-1
507973.6938476563	3.586824963906403	-0.0965018572588249	-1
507982.7880859375	3.663634498552621	-0.09745125491510406	-1
507991.8823242188	3.587618301822937	-0.05548966422261609	-1
508000.9765625	3.647839861850722	-0.07429598850824083	-1
508010.0708007813	3.585815261103542	-0.06642905767495339	-1
508019.1650390625	3.670558174915096	-0.01548227336598754	-1
508028.2592773438	3.599662613828494	-0.04269767121073709	-1
508037.353515625	3.642358618063762	-0.003304992923585298	-1
508046.4477539063	3.662985403893639	-0.01124184806673289	-1
508055.5419921875	3.626491859733088	0.04372706591078118	-1
508064.6362304688	3.707700813734629	0.00879391107395483	-1
508073.73046875	3.774773928496114	0.149098077040785	-1
508082.8247070313	3.848987084506403	0.1911933914624479	-1
508091.9189453125	3.864348991435646	0.2082540554763025	-1
508101.0131835938	4.013712884630309	0.3107481512637433	-1
508110.107421875	4.026983264325055	0.3397950231538688	-1
508119.2016601563	4.125934139005439	0.396901231102482	-1
508128.2958984375	4.198632740811437	0.4161854742635036	-1
508137.3901367188	4.275370153828878	0.5017397034810348	-1
508146.484375	4.167476197180295	0.3897321529130698	-1
508155.5786132813	4.1132407323409	0.2820723626895917	-1
508164.6728515625	4.028065088756692	0.1886416947342619	-1
508173.7670898438	3.879350290221011	0.05347640222671446	-1
508182.861328125	3.855333787838672	-0.04192823135631719	-1
508191.9555664063	3.694574677297435	-0.1170503817577781	-1
508201.0498046875	3.671639999346733	-0.2089059218410106	-1
508210.1440429688	3.607812357880158	-0.2321517248487105	-1
508219.23828125	3.653753835410337	-0.1934724917481657	-1
508228.3325195313	3.577088544021672	-0.2248571718737297	-1
508237.4267578125	3.601970505949319	-0.207180874982985	-1
508246.5209960938	3.60745174973628	-0.1945157692217575	-1
508255.615234375	3.557687825880984	-0.1735648268203767	-1
508264.7094726563	3.547518676223597	-0.2240236149865642	-1
508273.8037109375	3.572617003037573	-0.1656761172022473	-1
508282.8979492188	3.561438150577325	-0.1419917687324597	-1
508291.9921875	3.499197184943818	-0.1879830736486556	-1
508301.0864257813	3.583435247353941	-0.1333579645506008	-1
508310.1806640625	3.519102754485936	-0.1126555121531155	-1
508319.2749023438	3.540090148459691	-0.1228856533402739	-1
508328.369140625	3.547735041109925	-0.1003298112416382	-1
508337.4633789063	3.628727630225138	-0.01132113551361505	-1
508346.5576171875	3.574275800499416	-0.01935701350859043	-1
508355.6518554688	3.606802655077297	-0.01634862608516894	-1
508364.74609375	3.609399033713226	0.009189713256428155	-1
508373.8403320313	3.573121854439003	0.003095258569328747	-1
508382.9345703125	3.644233780411933	0.0144219835442266	-1
508392.0288085938	3.573049732810227	0.04284726902432624	-1
508401.123046875	3.635579184958838	0.01824887841901768	-1
508410.2172851563	3.585382531330887	0.04335642621098754	-1
508419.3115234375	3.623030021551851	0.04567022080547718	-1
508428.4057617188	3.578747341483515	0.02368819612371477	-1
508437.5	3.630386427686981	0.06567956471984646	-1
508446.5942382813	3.634569482155977	0.06606563970294824	-1
508455.6884765625	3.567063637621837	0.0633496096300519	-1
508464.7827148438	3.586175869247421	-0.0002331525875849845	-1
508473.876953125	3.617981507537545	0.07696362698641585	-1
508482.9711914063	3.629448846512896	0.0875878373383345	-1
508492.0654296875	3.582209179664753	0.03794903077099392	-1
508501.1596679688	3.647984105108274	0.05710826500787108	-1
508510.25390625	3.581271598490667	0.05040056781548911	-1
508519.3481445313	3.589132856027228	0.03096304029160104	-1
508528.4423828125	3.620073034772043	0.03776959734695391	-1
508537.5366210938	3.654691416584423	0.1151957178849194	-1
508546.630859375	3.593171667238673	0.05418235381548096	-1
508555.7250976563	3.617837264279993	0.05446537645163859	-1
508564.8193359375	3.629809454656775	0.07896508529637175	-1
508573.9135742188	3.578603098225963	0.0546559538934766	-1
508583.0078125	3.647479253706843	0.0605845996676756	-1
508592.1020507813	3.593171667238673	0.08323496807609204	-1
508601.1962890625	3.633054927951685	0.06296538519943409	-1
508610.2905273438	3.583651612240268	0.0563706772996119	-1
508619.384765625	3.651445943289512	0.08331533595022356	-1
508628.4790039063	3.58242554455108	0.06193893753328762	-1
508637.5732421875	3.616539074962029	0.05978590139311655	-1
508646.6674804688	3.620938494317352	0.0644486425304785	-1
508655.76171875	3.576439449362689	0.06834831913177294	-1
508664.8559570313	3.584949801558233	0.01324133004259343	-1
508673.9501953125	3.606514168562194	0.0681065429179385	-1
508683.0444335938	3.6252657920439	0.07802607223808702	-1
508692.138671875	3.560789055918343	0.04050594049271927	-1
508701.2329101563	3.617620899393666	0.04940739653759747	-1
508710.3271484375	3.556317514934244	0.04206097534230559	-1
508719.4213867188	3.594397734927862	0.03912510062263093	-1
508728.515625	3.612283898864257	0.05608827878350997	-1
508737.6098632813	3.659162957568522	0.1176635019674355	-1
508746.7041015625	3.657576281735454	0.09972038348218532	-1
508755.7983398438	3.694718920554986	0.1353406597040733	-1
508764.892578125	3.676544270103487	0.1223588997763527	-1
508773.9868164063	3.589060734398453	0.05823996662135168	-1
508783.0810546875	3.64307983435152	0.03560880629661176	-1
508792.1752929688	3.578170368453308	0.04909069710274478	-1
508801.26953125	3.628150657194932	0.02855203300908947	-1
508810.3637695313	3.589060734398453	0.03328831157256906	-1
508819.4580078125	3.631900981891273	0.05059945108096744	-1
508828.5522460938	3.560789055918343	0.006258558046576173	-1
508837.646484375	3.600960803146458	0.01685051972123513	-1
508846.7407226563	3.631035522345963	0.03601285302637818	-1
508855.8349609375	3.535257999331713	0.02460862256765011	-1
508864.9291992188	3.417267014654519	-0.133285042164852	-1
508874.0234375	3.888870345219415	0.1004768493242774	-1
508883.1176757813	4.972714182461999	0.987239335298806	-1
508892.2119140625	6.319080748448462	2.161557755521836	-1
508901.3061523438	6.861363275213632	2.868821480243205	-1
508910.400390625	4.976176020643237	1.66810993859539	-1
508919.4946289063	3.766479941186898	-0.3616970095030159	-1
508928.5888671875	3.645171361586018	-0.6742991381300392	-1
508937.6831054688	3.593532275382552	-0.5145235312419922	-1
508946.77734375	3.42512827219108	-0.7964918450287681	-1
508955.8715820313	3.421305825865963	-0.7021655169179154	-1
508964.9658203125	3.468040641312676	-0.7007130726060308	-1
508974.0600585938	3.425056150562305	-0.6105757609753177	-1
508983.154296875	3.50258690149628	-0.5918464692376086	-1
508992.2485351563	3.452173882982002	-0.5329790771584642	-1
509001.3427734375	3.492345630210117	-0.4961785124715571	-1
509010.4370117188	3.44928901783097	-0.5071474923563961	-1
509019.53125	3.523790660356362	-0.4003669091515177	-1
509028.6254882813	3.474675831160049	-0.4214712527066654	-1
509037.7197265625	3.500495374261782	-0.35727773884405	-1
509046.8139648438	3.522203984523295	-0.3518438287689953	-1
509055.908203125	3.461044843321424	-0.307121941311694	-1
509065.0024414063	3.549898689973198	-0.3112351686580196	-1
509074.0966796875	3.594902586329292	-0.1802715213372619	-1
509083.1909179688	3.608172966024037	-0.1452917802070725	-1
509092.28515625	3.628150657194932	-0.1571373060068135	-1
509101.3793945313	3.72601970744368	-0.02674414498474906	-1
509110.4736328125	3.734530059639223	-0.02117308544128439	-1
509119.5678710938	3.820715406026293	0.06162390059485456	-1
509128.662109375	3.904953468436417	0.116269862723496	-1
509137.7563476563	4.138988153813858	0.2966444680009912	-1
509146.8505859375	4.188391469525274	0.4043753637565788	-1
509155.9448242188	4.310060657270033	0.4244138189212941	-1
509165.0390625	4.37677316388764	0.4936654362407416	-1
509174.1333007813	4.344606917453637	0.4501177351505741	-1
509183.2275390625	4.385499880969511	0.3929273100983786	-1
509192.3217773438	4.24637725906101	0.3209011219753247	-1
509201.416015625	4.0471051987535	0.08319411062183418	-1
509210.5102539063	3.8829563716598	-0.1218131405208456	-1
509219.6044921875	3.870118721737709	-0.162053509121653	-1
509228.6987304688	3.712965692635261	-0.2521505029633667	-1
509237.79296875	3.674164256353886	-0.3362636609112761	-1
509246.8872070313	3.682097635519223	-0.3222890615172586	-1
509255.9814453125	3.62165971060511	-0.3040960336435818	-1
509265.0756835938	3.668178161165495	-0.3271676176314305	-1
509274.169921875	3.597715329851548	-0.278767996533364	-1
509283.2641601563	3.629232481626568	-0.3076839598897209	-1
509292.3583984375	3.556389636563019	-0.2953668015708567	-1
509301.4526367188	3.599085640798288	-0.2791366066664074	-1
509310.546875	3.551196879291163	-0.2769890603509455	-1
509319.6411132813	3.563962407584478	-0.2493131580360597	-1
509328.7353515625	3.588628004625798	-0.2501931633911958	-1
509337.8295898438	3.613077236780791	-0.1528830740449428	-1
509346.923828125	3.572040030007366	-0.1879934418941	-1
509356.0180664063	3.617260291249787	-0.1495667899219816	-1
509365.1123046875	3.62750156253595	-0.09364223702251215	-1
509374.2065429688	3.612500263750585	-0.09993338999758193	-1
509383.30078125	3.68541523044291	-0.0435418983890762	-1
509392.3950195313	3.631396130489842	-0.02477457600099395	-1
509401.4892578125	3.701137745516032	-0.01430736489888528	-1
509410.5834960938	3.643440442495399	0.005921817135189139	-1
509419.677734375	3.706402624416664	0.01804641202806806	-1
509428.7719726563	3.649354416055014	0.02053674536661976	-1
509437.8662109375	3.669836958627339	0.02191061480376025	-1
509446.9604492188	3.69226678517661	0.03456541617677825	-1
509456.0546875	3.629448846512896	0.0507474277873336	-1
509465.1489257813	3.666230877188549	0.002356524738800159	-1
509474.2431640625	3.651950794690942	0.06538515253130232	-1
509483.3374023438	3.66038902525771	0.0509073713553192	-1
509492.431640625	3.602835965494629	0.02260812915560901	-1
509501.5258789063	3.68678554138965	0.06974845357152773	-1
509510.6201171875	3.626203373217985	0.07154278411234344	-1
509519.7143554688	3.625770643445331	0.05753265450637947	-1
509528.80859375	3.611057831175069	0.03422874191297565	-1
509537.9028320313	3.674164256353886	0.1078878162102046	-1
509546.9970703125	3.594830464700516	0.07424141410124316	-1
509556.0913085938	3.645531969729897	0.07031108803770689	-1
509565.185546875	3.648200469994601	0.1169995197332242	-1
509574.2797851563	3.602691722237077	0.09094076620042149	-1
509583.3740234375	3.683972797867393	0.1062953186671056	-1
509592.4682617188	3.628150657194932	0.1482916259685359	-1
509601.5625	3.650508362115426	0.1056308328566289	-1
509610.6567382813	3.611129952803845	0.1074991510607697	-1
509619.7509765625	3.665509660900791	0.1359295310175903	-1
509628.8452148438	3.587041328792731	0.1027509923759726	-1
509637.939453125	3.613870574697325	0.09908140287918484	-1
509647.0336914063	3.635579184958838	0.1145719114267507	-1
509656.1279296875	3.5865364773913	0.1323584027502439	-1
509665.2221679688	3.678780040595536	0.1165272020785415	-1
509674.31640625	3.707989300249732	0.2299353064727466	-1
509683.4106445313	3.726452437216334	0.2132011377773773	-1
509692.5048828125	3.641637401776004	0.1524603695748389	-1
509701.5991210938	3.692338906805385	0.1582956624102622	-1
509710.693359375	3.618269994052648	0.1312694213438282	-1
509719.7875976563	3.659379322454849	0.1347194631768079	-1
509728.8818359375	3.667961796279168	0.1431819348395241	-1
509737.9760742188	3.697892272221121	0.1954224957590502	-1
509747.0703125	3.637021617534354	0.136774272231785	-1
509756.1645507813	3.66947635048346	0.1429653422724987	-1
509765.2587890625	3.6845497708976	0.1677573084734649	-1
509774.3530273438	3.635074333557407	0.1464547955881817	-1
509783.447265625	3.680222473171052	0.1355914939690715	-1
509792.5415039063	3.493427454641754	0.07320054811017619	-1
509801.6357421875	3.464578803131438	-0.05435165564902111	-1
509810.7299804688	4.669803341603678	0.6101013649215327	-1
509819.82421875	6.190920614113882	2.167348953568023	-1
509828.9184570313	6.992841004471899	3.024060187832625	-1
509838.0126953125	5.552139348046702	2.203424811203607	-1
509847.1069335938	4.090161811132647	0.2459610639116296	-1
509856.201171875	3.793814038492923	-0.4871531861133855	-1
509865.2954101563	3.83413002897859	-0.2680094156195126	-1
509874.3896484375	3.616755439848356	-0.4914753877415566	-1
509883.4838867188	3.60745174973628	-0.5189285311245755	-1
509892.578125	3.572905489552676	-0.5143609696338745	-1
509901.6723632813	3.638752536624973	-0.4494082245439163	-1
509910.7666015625	3.598436546139306	-0.4110427402557413	-1
509919.8608398438	3.6389689015113	-0.4024429124618176	-1
509928.955078125	3.675246080785523	-0.3139199602759348	-1
509938.0493164063	3.703012907864202	-0.27902507879209	-1
509947.1435546875	3.650652605372978	-0.2677796598631961	-1
509956.2377929688	3.681737027375344	-0.2831849124698109	-1
509965.33203125	3.697459542448466	-0.2082044802866112	-1
509974.4262695313	3.632405833292703	-0.2396438595390314	-1
509983.5205078125	3.713831152180571	-0.2180993111914971	-1
509992.6147460938	3.65216715957727	-0.1624812472257808	-1
510001.708984375	3.68043883805738	-0.202015136476919	-1
510010.8032226563	3.664860566241809	-0.1567760959313409	-1
510019.8974609375	3.750901669371328	-0.1064726974235395	-1
510028.9916992188	3.687001906275977	-0.09069833272699515	-1
510038.0859375	3.74022766831251	-0.09974216112811332	-1
510047.1801757813	3.802108025802139	-0.03577887143017793	-1
510056.2744140625	3.798285579477022	0.01999042788797326	-1
510065.3686523438	3.925436011008741	0.04638857348482103	-1
510074.462890625	4.056336767236801	0.2213978984819782	-1
510083.5571289063	4.168774386498259	0.3059859747924992	-1
510092.6513671875	4.165024061801918	0.3187243505096528	-1
510101.7456054688	4.292895709621395	0.3588884475070832	-1
510110.83984375	4.255464584286759	0.3705827354549899	-1
510119.9340820313	4.222144391792345	0.2952503569718085	-1
510129.0283203125	4.146560924835316	0.190401358720568	-1
510138.1225585938	3.936037890438783	0.05717299907578323	-1
510147.216796875	3.780687902055729	-0.1845509972109291	-1
510156.3110351563	3.76251325160423	-0.2025527514179465	-1
510165.4052734375	3.732654897291052	-0.2001723909667603	-1
510174.4995117188	3.603629303411163	-0.2831913908608396	-1
510183.59375	3.637742833822112	-0.2999158010180291	-1
510192.6879882813	3.582281301293528	-0.2714574073027884	-1
510201.7822265625	3.663273890408742	-0.2324488219774157	-1
510210.8764648438	3.593171667238673	-0.2117344640637995	-1
510219.970703125	3.685487352071685	-0.1726704254726134	-1
510229.0649414063	3.621443345718783	-0.1488974363650147	-1
510238.1591796875	3.631900981891273	-0.1513318172092535	-1
510247.2534179688	3.652383524463597	-0.1371693204510873	-1
510256.34765625	3.583940098755372	-0.1088065639585858	-1
510265.4418945313	3.63074703583086	-0.1498936483344971	-1
510274.5361328125	3.616611196590805	-0.0683360676088689	-1
510283.6303710938	3.651157456774409	-0.06309648427937642	-1
510292.724609375	3.580550382202909	-0.07788273562279885	-1
510301.8188476563	3.650652605372978	-0.04217178435582429	-1
510310.9130859375	3.599878978714822	-0.03874657562370634	-1
510320.0073242188	3.642070131548659	-0.00608962050581611	-1
510329.1015625	3.665076931128136	0.009155368126303406	-1
510338.1958007813	3.676616391732263	0.07505453686429345	-1
510347.2900390625	3.655196267985853	0.03021768431555507	-1
510356.3842773438	3.674885472641644	0.06420919423511319	-1
510365.478515625	3.688011609078838	0.08186462557335265	-1
510374.5727539063	3.656566578932593	0.06968763872758127	-1
510383.6669921875	3.731789437745743	0.1067682933860212	-1
510392.7612304688	3.692988001464368	0.1236698434048684	-1
510401.85546875	3.694502555668659	0.1068387758851664	-1
510410.9497070313	3.701786840175014	0.09605298062939784	-1
510420.0439453125	3.766119333043019	0.1635963346640088	-1
510429.1381835938	3.694286190782332	0.1145949221176892	-1
510438.232421875	3.69911833991031	0.09256368682511551	-1
510447.3266601563	3.717365111990585	0.1088063628775461	-1
510456.4208984375	3.678635797337985	0.1097805292601793	-1
510465.5151367188	3.76027748111218	0.1179810739006115	-1
510474.609375	3.700055921084395	0.1510505633613983	-1
510483.7036132813	3.721331801573253	0.1081461999376404	-1
510492.7978515625	3.662264187605881	0.09082811828368098	-1
510501.8920898438	3.741742222516802	0.1242399811922583	-1
510510.986328125	3.691257082373749	0.1204144866672312	-1
510520.0805664063	3.689093433510475	0.1105111414555014	-1
510529.1748046875	3.713398422407916	0.09538352383729522	-1
510538.2690429688	3.659812052227504	0.1239108784943077	-1
510547.36328125	3.6571435519628	0.04815967887665231	-1
510556.4575195313	3.683972797867393	0.1018826547300264	-1
510565.5517578125	3.69774802896357	0.1236332067088149	-1
510574.6459960938	3.63983436105661	0.07726292571529726	-1
510583.740234375	3.706258381159113	0.1063144017705903	-1
510592.8344726563	3.701498353659911	0.1288983785609403	-1
510601.9287109375	3.749675601682139	0.1638228613040569	-1
510611.0229492188	3.710008705855454	0.1387071615722137	-1
510620.1171875	3.769509049595481	0.1649662339806007	-1
510629.2114257813	3.67632790521716	0.1296760138046746	-1
510638.3056640625	3.722557869262442	0.1010858396874618	-1
510647.3999023438	3.748738020508054	0.1504642094770374	-1
510656.494140625	3.682890973435756	0.1276657533095782	-1
510665.5883789063	3.750613182856224	0.09840967039354874	-1
510674.6826171875	3.744410722781506	0.1680335264047549	-1
510683.7768554688	3.752632588461947	0.1378947230490074	-1
510692.87109375	3.669404228854684	0.08584763938618213	-1
510701.9653320313	3.650003510713996	0.04840364789478019	-1
510711.0595703125	3.497033536080544	-0.05786417251014744	-1
510720.1538085938	3.762152643460351	0.0370181089991472	-1
510729.248046875	4.660355408234049	0.6835717337550342	-1
510738.3422851563	6.017395975279329	1.87652252298649	-1
510747.4365234375	5.773913356532259	2.191268387806513	-1
510756.5307617188	4.208224917438617	0.7546570044491263	-1
510765.625	3.873508438290172	-0.3532904355968449	-1
510774.7192382813	3.802396512317242	-0.1538036848765544	-1
510783.8134765625	3.794679498038232	-0.2612113607804811	-1
510792.9077148438	3.619568183370612	-0.3718918444823487	-1
510802.001953125	3.610048128372208	-0.3771320845760398	-1
510811.0961914063	3.630674914202084	-0.4241602882960681	-1
510820.1904296875	3.729553667253693	-0.2330770709462275	-1
510829.2846679688	3.68592008184434	-0.2870788762906281	-1
510838.37890625	3.707123840704422	-0.2335749821000406	-1
510847.4731445313	3.740588276456389	-0.220391981415032	-1
510856.5673828125	3.68368431135229	-0.2035986063749488	-1
510865.6616210938	3.764749022096279	-0.1918345382400561	-1
510874.755859375	3.742535560433336	-0.1443281012159051	-1
510883.8500976563	3.750757426113776	-0.1319137990015773	-1
510892.9443359375	3.689454041654354	-0.1957992412948557	-1
510902.0385742188	3.758690805279113	-0.122937879935071	-1
510911.1328125	3.688083730707614	-0.1584521701841777	-1
510920.2270507813	3.719240274338755	-0.1389459408352244	-1
510929.3212890625	3.726308193958783	-0.130188156506087	-1
510938.4155273438	3.665437539272015	-0.124359736885603	-1
510947.509765625	3.721476044830805	-0.1479456729411399	-1
510956.6040039063	3.770807238913446	-0.04728133499880814	-1
510965.6982421875	3.811916567315647	-0.001883968591998456	-1
510974.7924804688	3.838385205076361	0.003741453844516749	-1
510983.88671875	3.981186030052427	0.1287348052782593	-1
510992.9809570313	3.982989070771822	0.1596587546857425	-1
511002.0751953125	4.067876227840928	0.200362968845786	-1
511011.1694335938	4.156874317750254	0.2527057367680229	-1
511020.263671875	4.235270528229538	0.3419882452667587	-1
511029.3579101563	4.132497207224036	0.2564492699798899	-1
511038.4521484375	4.084896932232015	0.1495032163114886	-1
511047.5463867188	3.988037584786127	0.07213878397923887	-1
511056.640625	3.829370001479388	-0.0760131240782269	-1
511065.7348632813	3.860093815337875	-0.1348071476257317	-1
511074.8291015625	3.713470544036692	-0.1565433697044527	-1
511083.9233398438	3.717869963392015	-0.2446061435254683	-1
511093.017578125	3.626563981361864	-0.2564897313061384	-1
511102.1118164063	3.67683275661859	-0.2420777890424678	-1
511111.2060546875	3.626491859733088	-0.2442819093125381	-1
511120.3002929688	3.65988417385628	-0.2045047739137987	-1
511129.39453125	3.652816254236252	-0.2068227198704021	-1
511138.4887695313	3.603124452009732	-0.1866080875406715	-1
511147.5830078125	3.646541672532758	-0.2099545268082694	-1
511156.6772460938	3.6708466614302	-0.1172316891176374	-1
511165.771484375	3.693925582638453	-0.1009615625912448	-1
511174.8657226563	3.635146455186183	-0.1298049784384789	-1
511183.9599609375	3.705753529757682	-0.08719944770888577	-1
511193.0541992188	3.651157456774409	-0.08265656419173117	-1
511202.1484375	3.675318202414299	-0.07365962395794622	-1
511211.2426757813	3.62165971060511	-0.09970793026721239	-1
511220.3369140625	3.68952616328313	-0.05073383398661915	-1
511229.4311523438	3.644017415525605	-0.0461813636109131	-1
511238.525390625	3.650075632342772	-0.0492376283412933	-1
511247.6196289063	3.677914581050227	-0.02935887920479628	-1
511256.7138671875	3.644233780411933	-0.005839173157510685	-1
511265.8081054688	3.703301394379305	-0.00562847863767886	-1
511274.90234375	3.642719226207641	0.01852596343389987	-1
511283.9965820313	3.68368431135229	0.003650331718525364	-1
511293.0908203125	3.642502861321314	0.008794184772194697	-1
511302.1850585938	3.662985403893639	0.02467880133658655	-1
511311.279296875	3.600744438260131	-0.02114462569256009	-1
511320.3735351563	3.613365723295894	-0.003598710902843333	-1
511329.4677734375	3.684910379041479	0.02588282413177643	-1
511338.5620117188	3.631107643974739	0.07736105389902816	-1
511347.65625	3.632261590035152	0.005176015737583438	-1
511356.7504882813	3.665798147415894	0.06107302521242891	-1
511365.8447265625	3.683828554609842	0.1016050996751595	-1
511374.9389648438	3.636733131019251	0.0540711989509336	-1
511384.033203125	3.728832450965935	0.1121874123319018	-1
511393.1274414063	3.664716322984257	0.1123288461281916	-1
511402.2216796875	3.687795244192511	0.09289912522584454	-1
511411.3159179688	3.631900981891273	0.06761191378393405	-1
511420.41015625	3.707268083961974	0.1010879370848481	-1
511429.5043945313	3.651734429804615	0.1017725380517562	-1
511438.5986328125	3.689454041654354	0.09480771934905286	-1
511447.6928710938	3.697459542448466	0.1179302502139641	-1
511456.787109375	3.680655202943707	0.1211887025860705	-1
511465.8813476563	3.776288482700406	0.1434964883269735	-1
511474.9755859375	3.696521961274381	0.1728364482222157	-1
511484.0698242188	3.674236377982662	0.0790715506506196	-1
511493.1640625	3.599518370570943	0.03940231103454187	-1
511502.2583007813	3.659162957568522	0.05905749843190832	-1
511511.3525390625	3.587185572050282	0.03745306637455262	-1
511520.4467773438	3.591584991405606	0.02543926894865962	-1
511529.541015625	3.615457250530392	0.0158662293651928	-1
511538.6352539063	3.560284204516912	0.03633832765432653	-1
511547.7294921875	3.569010921598783	-0.02678523363399648	-1
511556.8237304688	3.605504465759333	0.04757672195220705	-1
511565.91796875	3.570813962318178	0.04421935303203933	-1
511575.0122070313	3.408828784087752	-0.07884617632173079	-1
511584.1064453125	3.646397429275206	-0.002893793432011869	-1
511593.2006835938	4.357156080860625	0.5427856611927145	-1
511602.294921875	5.71015783669446	1.634181729662035	-1
511611.3891601563	5.299208795930004	1.923843861244031	-1
511620.4833984375	3.393971728559939	0.2347933228204017	-1
511629.5776367188	3.244247227221397	-0.926517318641831	-1
511638.671875	3.431258610637022	-0.2970990698360582	-1
511647.7661132813	3.585598896217215	-0.2421316879134962	-1
511656.8603515625	3.535834972361919	-0.2159239165466712	-1
511665.9545898438	3.60110504640401	-0.1147010405247189	-1
511675.048828125	3.567929097167146	-0.2008772465620893	-1
511684.1430664063	3.665798147415894	-0.02973819913656081	-1
511693.2373046875	3.626708224619416	-0.1012309000860293	-1
511702.3315429688	3.716066922672621	0.006770790808679671	-1
511711.42578125	3.68043883805738	-0.01001250913374141	-1
511720.5200195313	3.704960191841149	-0.0007942127043395406	-1
511729.6142578125	3.730202761912675	0.02923340079736962	-1
511738.7084960938	3.68094368945881	0.005053043655381406	-1
511747.802734375	3.708422030022387	0.005704741056838845	-1
511756.8969726563	3.75292107497705	0.02955562187816484	-1
511765.9912109375	3.781913969744918	0.105304050966878	-1
511775.0854492188	3.743905871380076	0.037350687080441	-1
511784.1796875	3.854035598520708	0.1141933495721638	-1
511793.2739257813	3.827639082388769	0.1332394328448168	-1
511802.3681640625	3.878268465789374	0.1312058173972345	-1
511811.4624023438	3.971665975054023	0.1955286744529376	-1
511820.556640625	4.098455798441863	0.3065096167990263	-1
511829.6508789063	4.123842611770941	0.3410931313110358	-1
511838.7451171875	4.2636864499672	0.3775815963724054	-1
511847.8393554688	4.389466570552179	0.5043536018491328	-1
511856.93359375	4.400429058126099	0.4981328336670153	-1
511866.0278320313	4.548062032230143	0.5199089501796226	-1
511875.1220703125	4.546331113139524	0.5584516203759768	-1
511884.2163085938	4.555779046509152	0.4768825651544744	-1
511893.310546875	4.38499502956808	0.3318162355543883	-1
511902.4047851563	4.310060657270033	0.1666550489590857	-1
511911.4990234375	4.088286648784477	-0.01567603940384069	-1
511920.5932617188	3.973180529258315	-0.1887281720282612	-1
511929.6875	3.903655279118452	-0.281369298468158	-1
511938.7817382813	3.779029104593886	-0.3347748965204456	-1
511947.8759765625	3.703012907864202	-0.4634821441391467	-1
511956.9702148438	3.713254179150364	-0.4379365959785049	-1
511966.064453125	3.740804641342717	-0.3849277057177728	-1
511975.1586914063	3.675390324043074	-0.4005319289996795	-1
511984.2529296875	3.737631289676582	-0.3731723386653549	-1
511993.3471679688	3.664716322984257	-0.3560374713893906	-1
512002.44140625	3.684982500670255	-0.3641802435242879	-1
512011.5356445313	3.686424933245771	-0.3364195777793942	-1
512020.6298828125	3.707484448848301	-0.277262980672373	-1
512029.7241210938	3.6526720109787	-0.311211049758368	-1
512038.818359375	3.68368431135229	-0.2811605875982574	-1
512047.9125976563	3.693060123093143	-0.2440110313568771	-1
512057.0068359375	3.64993138908522	-0.2416870539160774	-1
512066.1010742188	3.7369821950176	-0.210222255960352	-1
512075.1953125	3.66947635048346	-0.1637572760304038	-1
512084.2895507813	3.709648097711575	-0.1869145064632362	-1
512093.3837890625	3.651662308175839	-0.1745373702139646	-1
512102.4780273438	3.744987695811712	-0.1258084454327664	-1
512111.572265625	3.676255783588384	-0.1179023422426209	-1
512120.6665039063	3.707484448848301	-0.1107977717442889	-1
512129.7607421875	3.730563370056554	-0.09191828315621894	-1
512138.8549804688	3.654547173326871	-0.07184187183408236	-1
512147.94921875	3.64993138908522	-0.1563422976767112	-1
512157.0434570313	3.69089647422987	-0.07048569637728293	-1
512166.1376953125	3.72190877460346	-0.02930876710045803	-1
512175.2319335938	3.673082431922249	-0.05043064439876249	-1
512184.326171875	3.738713114108219	-0.01365574784456614	-1
512193.4204101563	3.678996405481864	-0.01618866005342493	-1
512202.5146484375	3.714047517066898	-0.009339624590172731	-1
512211.6088867188	3.756310791529512	0.02290220639141203	-1
512220.703125	3.766047211414243	0.08831790561835184	-1
512229.7973632813	3.691040717487421	0.007611683579511982	-1
512238.8916015625	3.722485747633666	0.01481550715348939	-1
512247.9858398438	3.750613182856224	0.05899351884193393	-1
512257.080078125	3.667601188135289	0.02742868927793949	-1
512266.1743164063	3.747151344674987	0.02108464326980187	-1
512275.2685546875	3.659379322454849	0.03853606022850366	-1
512284.3627929688	3.70734020559075	-0.002301032658992282	-1
512293.45703125	3.65440293006932	0.00944804089646107	-1
512302.5512695313	3.767201157474656	0.06970560118086555	-1
512311.6455078125	3.733592478465138	0.08932677901310922	-1
512320.7397460938	3.777803036904697	0.1180664704572783	-1
512329.833984375	3.814224459436472	0.1261808808805698	-1
512338.9282226563	3.755589575241754	0.151580660959725	-1
512348.0224609375	3.735034911040653	0.0556001418689953	-1
512357.1166992188	3.754363507552565	0.09697306875140141	-1
512366.2109375	3.778019401791025	0.1225377971274602	-1
512375.3051757813	3.703012907864202	0.07170987535487026	-1
512384.3994140625	3.785736416070034	0.09844901036730556	-1
512393.4936523438	3.717509355248136	0.09828320825315423	-1
512402.587890625	3.753065318234601	0.08933503962189698	-1
512411.6821289063	3.777370307132042	0.1053462672589537	-1
512420.7763671875	3.802540755574793	0.166204036210413	-1
512429.8706054688	3.694502555668659	0.07163333104166597	-1
512438.96484375	3.604927492729127	-0.0110756842769584	-1
512448.0590820313	3.582209179664753	-0.06215931068928859	-1
512457.1533203125	3.860382301852978	0.1108207100655363	-1
512466.2475585938	4.960814113713994	0.8712344522652697	-1
512475.341796875	6.237006334901611	2.091939338001925	-1
512484.4360351563	5.575290390883732	2.122057831353923	-1
512493.5302734375	4.168053170210501	0.4890822631550665	-1
512502.6245117188	4.01198196553969	-0.2402523662404338	-1
512511.71875	3.871705397570777	-0.07707637084349768	-1
512520.8129882813	3.793814038492923	-0.3091117345882639	-1
512529.9072265625	3.718446936422222	-0.3287244217051782	-1
512539.0014648438	3.625121548786348	-0.3635008733390506	-1
512548.095703125	3.644954996699691	-0.4309633661743029	-1
512557.1899414063	3.676976999876142	-0.2911743288115239	-1
512566.2841796875	3.705609286500131	-0.2977559412037105	-1
512575.3784179688	3.628367022081259	-0.2771873430653637	-1
512584.47265625	3.705897773015234	-0.2773790285234336	-1
512593.5668945313	3.641493158518453	-0.2311558107903957	-1
512602.6611328125	3.664716322984257	-0.2398964985173778	-1
512611.7553710938	3.683107338322084	-0.215425391670462	-1
512620.849609375	3.681015811087586	-0.1443191524053819	-1
512629.9438476563	3.617188169621011	-0.2259905731790971	-1
512639.0380859375	3.635146455186183	-0.1832356701816308	-1
512648.1323242188	3.652095037948494	-0.1659093946776817	-1
512657.2265625	3.583218882467614	-0.161577227143861	-1
512666.3208007813	3.682097635519223	-0.1462381036840132	-1
512675.4150390625	3.617765142651217	-0.08571782885586843	-1
512684.5092773438	3.709431732825248	-0.08380083992239476	-1
512693.603515625	3.669764836998563	-0.0517808221098261	-1
512702.6977539063	3.818046905761589	0.03725804087961469	-1
512711.7919921875	3.840332489053308	0.1018999789415176	-1
512720.8862304688	3.95269798668599	0.1970878068018392	-1
512729.98046875	4.069318660416443	0.2616879808890308	-1
512739.0747070313	4.085690270148549	0.3563956381562949	-1
512748.1689453125	4.232890514479937	0.3540097722492989	-1
512757.2631835938	4.226255324632565	0.4463990970291266	-1
512766.357421875	4.192935132138149	0.3524969655473812	-1
512775.4516601563	4.022583844969732	0.1997679548461949	-1
512784.5458984375	3.997197031640653	0.1199384448503248	-1
512793.6401367188	3.810474134740131	-0.0236093434406911	-1
512802.734375	3.752704710090722	-0.1087008884364219	-1
512811.8286132813	3.717365111990585	-0.1706600183466178	-1
512820.9228515625	3.641998009919883	-0.1545490517320765	-1
512830.0170898438	3.549249595314216	-0.2814436752921635	-1
512839.111328125	3.54867262228401	-0.261221946517896	-1
512848.2055664063	3.565549083417545	-0.2216316739371551	-1
512857.2998046875	3.486936508051933	-0.2420674499224368	-1
512866.3940429688	3.559995718001809	-0.2103594601782992	-1
512875.48828125	3.495879590020131	-0.1820358058778002	-1
512884.5825195313	3.52090579520533	-0.1735688692151008	-1
512893.6767578125	3.449433261088522	-0.1961192366717607	-1
512902.7709960938	3.527396741795152	-0.1342707035954138	-1
512911.865234375	3.456861788852428	-0.1323771617164424	-1
512920.9594726563	3.473089155326981	-0.1240657122394492	-1
512930.0537109375	3.502298414981177	-0.09307718452186185	-1
512939.1479492188	3.442365341468495	-0.06209961968950467	68.7248322147651
512948.2421875	3.5135493890702	-0.07411387028803125	68.7248322147651
512957.3364257813	3.484340129416005	0.002845581723804766	68.7248322147651
512966.4306640625	3.511674226722029	-0.00167091488976738	68.7248322147651
512975.5249023438	3.463352735442249	-0.0107945229647389	68.7248322147651
512984.619140625	3.543768351527256	0.05259706718587231	68.7248322147651
512993.7133789063	3.500639617519334	0.0520887418466903	68.7248322147651
513002.8076171875	3.528262201340461	0.08172291130780585	68.7248322147651
513011.9018554688	3.573915192355537	0.09694348792632739	68.7248322147651
513020.99609375	3.596705627048687	0.1810131123323185	68.7248322147651
513030.0903320313	3.532373134180681	0.1159548812165811	68.7248322147651
513039.1845703125	3.553072041639333	0.1106479798634955	68.7248322147651
513048.2788085938	3.562736339895289	0.1487448223305055	68.7248322147651
513057.373046875	3.496961414451768	0.1044152499228008	68.7248322147651
513066.4672851563	3.608245087652813	0.1368919026291101	68.7248322147651
513075.5615234375	3.585671017845991	0.190091199341337	68.7248322147651
513084.6557617188	3.696666204531933	0.227832842347004	68.7248322147651
513093.75	3.629088238369017	0.2390739250794134	68.7248322147651
513102.8442382813	3.702796542977875	0.2389840549879124	68.7248322147651
513111.9384765625	3.604927492729127	0.2076687896003432	68.7248322147651
513121.0327148438	3.596561383791135	0.1614617052970572	68.7248322147651
513130.126953125	3.605071735986678	0.1435254036329404	68.7248322147651
513139.2211914063	3.525521579446981	0.1470636623288555	68.7248322147651
513148.3154296875	3.603052330380956	0.1002645043233828	68.7248322147651
513157.4096679688	3.549538081829319	0.1673263937218773	68.7248322147651
513166.50390625	3.576367327733914	0.1206051407148228	68.7248322147651
513175.5981445313	3.504966915245881	0.09720762081265116	68.7248322147651
513184.6923828125	3.589709829057435	0.1355445041384014	68.7248322147651
513193.7866210938	3.524295511757793	0.1159705320394861	68.7248322147651
513202.880859375	3.545859878761754	0.1255858538276642	68.7248322147651
513211.9750976563	3.551196879291163	0.1021377535780544	68.7248322147651
513221.0693359375	3.389067457803185	0.07021801196634625	68.7248322147651
513230.1635742188	3.615096642386513	0.04620494783816993	68.7248322147651
513239.2578125	4.59111864460929	0.7859797356245293	68.7248322147651
513248.3520507813	5.83968828197578	1.933933684427333	68.7248322147651
513257.4462890625	6.196041249756963	2.488999346399967	68.7248322147651
513266.5405273438	4.52909404386211	1.395359710638426	68.7248322147651
513275.634765625	3.123876228794602	-0.5707753044751217	68.7248322147651
513284.7290039063	3.33706776345584	-0.8118827432873061	68.7248322147651
513293.8232421875	3.399741458862002	-0.3453773720869908	68.7248322147651
513302.9174804688	3.514270605357958	-0.4097139363491452	68.7248322147651
513312.01171875	3.47020429017595	-0.2911083641340935	68.7248322147651
513321.1059570313	3.550908392776059	-0.2704691780952633	68.7248322147651
513330.2001953125	3.614231182841204	-0.1994174486545833	68.7248322147651
513339.2944335938	3.555091447245055	-0.1384796333157229	68.7248322147651
513348.388671875	3.661326606431795	-0.1902740038368443	68.7248322147651
513357.4829101563	3.635074333557407	-0.04889258127719721	68.7248322147651
513366.5771484375	3.679357013625743	-0.1071120344992213	68.7248322147651
513375.6713867188	3.610769344659966	-0.09275770495855831	68.7248322147651
513384.765625	3.715850557786293	-0.06144218662728514	68.7248322147651
513393.8598632813	3.634280995640874	-0.06608096697624355	68.7248322147651
513402.9541015625	3.676472148474711	-0.0597274266635132	68.7248322147651
513412.0483398438	3.717220868733033	-0.05239563246746816	68.7248322147651
513421.142578125	3.774701806867338	0.06216992520181707	68.7248322147651
513430.2368164063	3.715057219869759	-0.01642900556561494	68.7248322147651
513439.3310546875	3.778307888306128	0.01905395744362957	68.7248322147651
513448.4252929688	3.855117422952345	0.08148794055944195	68.7248322147651
513457.51953125	3.832110623372868	0.09078365540969631	68.7248322147651
513466.6137695313	3.993518828573087	0.1235753681523705	68.7248322147651
513475.7080078125	3.993518828573087	0.2136422137772963	68.7248322147651
513484.8022460938	4.114755286545192	0.238039334897929	68.7248322147651
513493.896484375	4.257051260119827	0.3300877999839192	68.7248322147651
513502.9907226563	4.451274806413032	0.5157366707414584	68.7248322147651
513512.0849609375	4.438653521377268	0.485040129888865	68.7248322147651
513521.1791992188	4.499163567920157	0.4774719638297812	68.7248322147651
513530.2734375	4.51762670488676	0.4413445620167201	68.7248322147651
513539.3676757813	4.349655431467943	0.3301787281503924	68.7248322147651
513548.4619140625	4.298449075037131	0.1297918370314812	68.7248322147651
513557.5561523438	3.929114214076306	-0.07331394055388929	68.7248322147651
513566.650390625	3.838529448333913	-0.351423489189244	68.7248322147651
513575.7446289063	3.659307200826073	-0.4356570215831694	68.7248322147651
513584.8388671875	3.706402624416664	-0.4428095903745983	68.7248322147651
513593.9331054688	3.585382531330887	-0.4983101224057062	68.7248322147651
513603.02734375	3.589926193943762	-0.4752860246070824	68.7248322147651
513612.1215820313	3.618774845454079	-0.4872352333224208	68.7248322147651
513621.2158203125	3.611851169091603	-0.3725664523022234	68.7248322147651
513630.3100585938	3.513837875585303	-0.4789191708565995	68.7248322147651
513639.404296875	3.543263500125826	-0.4530450028320162	68.7248322147651
513648.4985351563	3.566126056447752	-0.3769708716698401	68.7248322147651
513657.5927734375	3.469050344115537	-0.4184292387974692	68.7248322147651
513666.6870117188	3.573410340954106	-0.3702798801427474	68.7248322147651
513675.78125	3.48390739964335	-0.3340868487524795	68.7248322147651
513684.8754882813	3.509726942745083	-0.3430985234122087	76.71609177462152
513693.9697265625	3.473666128357188	-0.3402054790232261	76.71609177462152
513703.0639648438	3.598075937995427	-0.2225150182899279	76.71609177462152
513712.158203125	3.518886389599608	-0.2172450284747356	76.71609177462152
513721.2524414063	3.557038731222002	-0.2067518628951898	76.71609177462152
513730.3466796875	3.597715329851548	-0.1580237441350605	76.71609177462152
513739.4409179688	3.517371835395317	-0.1382885285722312	76.71609177462152
513748.53515625	3.634497360527201	-0.1452574375875762	76.71609177462152
513757.6293945313	3.576872179135344	-0.0508430358767656	76.71609177462152
513766.7236328125	3.61430330446998	-0.08381486320068464	76.71609177462152
513775.8178710938	3.528478566226788	-0.1054718587355515	76.71609177462152
513784.912109375	3.648921686282359	-0.03675548469089544	76.71609177462152
513794.0063476563	3.546292608534409	-0.05272439735805424	76.71609177462152
513803.1005859375	3.578891584741066	-0.04995270311897226	76.71609177462152
513812.1948242188	3.624328210869815	-0.032815504284853	76.71609177462152
513821.2890625	3.623679116210833	0.0588117155043316	76.71609177462152
513830.3833007813	3.524079146871465	-0.05861523016902029	76.71609177462152
513839.4775390625	3.537782256338866	-0.05892161980471513	76.71609177462152
513848.5717773438	3.570309110916747	-0.008077465129585827	76.71609177462152
513857.666015625	3.46248727589694	-0.05263534624613594	76.71609177462152
513866.7602539063	3.566126056447752	-0.0382871140704544	76.71609177462152
513875.8544921875	3.535979215619471	0.02462843666638128	76.71609177462152
513884.9487304688	3.644882875070915	0.07693277157113163	76.71609177462152
513894.04296875	3.597282600078893	0.08779464151703231	76.71609177462152
513903.1372070313	3.704815948583597	0.1474833757888947	76.71609177462152
513912.2314453125	3.586608599020076	0.09645860326172404	76.71609177462152
513921.3256835938	3.584444950156802	0.03853983222808981	76.71609177462152
513930.419921875	3.607523871365055	0.04569262961171898	76.71609177462152
513939.5141601563	3.509005726457325	0.05198273660155365	76.71609177462152
513948.6083984375	3.618269994052648	0.01110546708354419	76.71609177462152
513957.7026367188	3.562880583152841	0.1077854105710172	76.71609177462152
513966.796875	3.596200775647256	0.06167062462684179	76.71609177462152
513975.8911132813	3.501577198693419	0.02664027912999126	76.71609177462152
513984.9853515625	3.609759641857105	0.07960928581796373	76.71609177462152
513994.0795898438	3.528334322969237	0.06090174618091747	76.71609177462152
514003.173828125	3.559274501714051	0.07752680342666694	76.71609177462152
514012.2680664063	3.572112151636142	0.05910683152887236	76.71609177462152
514021.3623046875	3.35300664341529	0.01471796246869249	76.71609177462152
514030.4565429688	3.802901363718672	0.06769713630986118	76.71609177462152
514039.55078125	4.874773010584475	1.017972106251879	76.71609177462152
514048.6450195313	5.924936047188765	2.04422670321311	76.71609177462152
514057.7392578125	6.011770488234817	2.293596451844525	76.71609177462152
514066.8334960938	4.563640304045713	1.253168866715284	76.71609177462152
514075.927734375	3.441283517036858	-0.3895465626134063	76.71609177462152
514085.0219726563	3.378826186517023	-0.6609068003991236	76.71609177462152
514094.1162109375	3.402265715869155	-0.486406808285419	76.71609177462152
514103.2104492188	3.508789361570998	-0.449429540715476	76.71609177462152
514112.3046875	3.447630220369127	-0.3552334633600883	76.71609177462152
514121.3989257813	3.5066978343365	-0.3790950310815185	76.71609177462152
514130.4931640625	3.555668420275262	-0.261919752677199	76.71609177462152
514139.5874023438	3.479435858659251	-0.2637549592732157	76.71609177462152
514148.681640625	3.606658411819746	-0.2495443445606914	76.71609177462152
514157.7758789063	3.549105352056665	-0.1370825428656	76.71609177462152
514166.8701171875	3.593315910496225	-0.1874537731629428	76.71609177462152
514175.9643554688	3.504173577329347	-0.1730644285747993	76.71609177462152
514185.05859375	3.625554278559003	-0.1367183645369073	76.71609177462152
514194.1528320313	3.533454958612318	-0.1128810982550342	76.71609177462152
514203.2470703125	3.56648666459163	-0.1245146303113841	76.71609177462152
514212.3413085938	3.610264493258535	-0.09347339832239447	76.71609177462152
514221.435546875	3.521554889864313	-0.05432498436281896	76.71609177462152
514230.5297851563	3.547951405996252	-0.1530419517356702	76.71609177462152
514239.6240234375	3.598725032654409	-0.0228191173620699	76.71609177462152
514248.7182617188	3.66262479574976	0.01972180953451031	76.71609177462152
514257.8125	3.584156463641699	0.001469419076354055	76.71609177462152
514266.9067382813	3.72789486979185	0.05337715534146843	76.71609177462152
514276.0009765625	3.677986702679003	0.09858182512888469	76.71609177462152
514285.0952148438	3.775495144783872	0.1277790663972447	76.71609177462152
514294.189453125	3.876393303441204	0.199586452187612	76.71609177462152
514303.2836914063	4.064558632917241	0.389519809027856	76.71609177462152
514312.3779296875	4.05532706443394	0.3908345463955429	76.71609177462152
514321.4721679688	4.150455492789209	0.4186007204500509	76.71609177462152
514330.56640625	4.218826796868658	0.4587559408432218	76.71609177462152
514339.6606445313	4.104081285486375	0.4019681771603956	76.71609177462152
514348.7548828125	4.143676059684284	0.2924425881108336	76.71609177462152
514357.8491210938	3.85605500412643	0.1727839801494011	76.71609177462152
514366.943359375	3.786169145842689	-0.06908106177853937	76.71609177462152
514376.0375976563	3.610048128372208	-0.1766894834745204	76.71609177462152
514385.1318359375	3.664932687870585	-0.1780843064573011	76.71609177462152
514394.2260742188	3.536628310278453	-0.2401593117275738	76.71609177462152
514403.3203125	3.54319137849705	-0.2360117157015208	76.71609177462152
514412.4145507813	3.564467258985908	-0.246913311935615	76.71609177462152
514421.5087890625	3.458159978170392	-0.206466734563153	76.71609177462152
514430.6030273438	3.472367939039224	-0.3079438071155995	76.71609177462152
514439.697265625	3.505399645018536	-0.1928255986016535	74.9725442342892
514448.7915039063	3.546508973420736	-0.1420871988703812	74.9725442342892
514457.8857421875	3.448423558285661	-0.1905573176404772	74.9725442342892
514466.9799804688	3.557615704252208	-0.1288000201543207	74.9725442342892
514476.07421875	3.45339995067119	-0.1345623520520575	74.9725442342892
514485.1684570313	3.478570399113941	-0.1368643821131968	74.9725442342892
514494.2626953125	3.405655432421617	-0.1760386625088072	74.9725442342892
514503.3569335938	3.508717239942222	-0.08927847850476958	74.9725442342892
514512.451171875	3.412506987155317	-0.1023512173244251	74.9725442342892
514521.5454101563	3.439047746544808	-0.1103259379139126	74.9725442342892
514530.6396484375	3.479507980288027	-0.06024285655693508	74.9725442342892
514539.7338867188	3.390798376893804	-0.05210758577075382	74.9725442342892
514548.828125	3.503812969185468	-0.05795618266494994	74.9725442342892
514557.9223632813	3.461838181237958	0.03491305723752611	74.9725442342892
514567.0166015625	3.504101455700571	0.02285849572014046	74.9725442342892
514576.1108398438	3.411713649238783	-0.01220343061961087	74.9725442342892
514585.205078125	3.534176174900076	0.05520570940727086	74.9725442342892
514594.2993164063	3.45015447737628	0.051251921067563	74.9725442342892
514603.3935546875	3.484123764529677	0.05961735476320804	74.9725442342892
514612.4877929688	3.528983417628219	0.07397702571270225	74.9725442342892
514621.58203125	3.441355638665633	0.110550118831877	74.9725442342892
514630.6762695313	3.434359840674381	-0.0040736524471927	74.9725442342892
514639.7705078125	3.455563599534464	0.07245714865745632	74.9725442342892
514648.8647460938	3.481311021007421	0.1000249849942408	74.9725442342892
514657.958984375	3.380917713751521	0.03723124208808447	74.9725442342892
514667.0532226563	3.532517377438233	0.1047813193504582	74.9725442342892
514676.1474609375	3.529127660885771	0.17678055669145	74.9725442342892
514685.2416992188	3.578891584741066	0.2125456211629579	74.9725442342892
514694.3359375	3.514414848615509	0.1534245919995562	74.9725442342892
514703.4301757813	3.618197872423872	0.2189515512073456	74.9725442342892
514712.5244140625	3.483979521272126	0.1688439634269491	74.9725442342892
514721.6186523438	3.499485671458921	0.1061256625098982	74.9725442342892
514730.712890625	3.540306513346018	0.1470324982011787	74.9725442342892
514739.8071289063	3.448062950141782	0.1378007277896121	74.9725442342892
514748.9013671875	3.556245393305468	0.1069901848865274	74.9725442342892
514757.9956054688	3.450947815292814	0.1570084798226828	74.9725442342892
514767.08984375	3.533454958612318	0.1093384616780807	74.9725442342892
514776.1840820313	3.441211395408082	0.1127362290536447	74.9725442342892
514785.2783203125	3.554225987699746	0.14016791381223	74.9725442342892
514794.3725585938	3.460756356806321	0.1057512080290546	74.9725442342892
514803.466796875	3.492417751838893	0.117157259269277	74.9725442342892
514812.5610351563	3.454193288587724	0.065240913531939	74.9725442342892
514821.6552734375	3.257156998772264	0.001523311266196425	74.9725442342892
514830.7495117188	4.284962330456058	0.3865925144367751	74.9725442342892
514839.84375	5.411141563790031	1.691893336819364	74.9725442342892
514848.9379882813	5.884475813445547	2.240623243215679	74.9725442342892
514858.0322265625	4.728943077199826	1.450161721625718	74.9725442342892
514867.1264648438	3.388057755000324	-0.04863949917130983	74.9725442342892
514876.220703125	3.061346776645991	-0.8720003446049147	74.9725442342892
514885.3149414063	3.180058977610943	-0.5453004520818724	74.9725442342892
514894.4091796875	3.280308041609292	-0.5157999646486895	74.9725442342892
514903.5034179688	3.438903503287257	-0.2870555635398593	74.9725442342892
514912.59765625	3.388201998257876	-0.2366003328944409	74.9725442342892
514921.6918945313	3.457366640253859	-0.2640495242569638	74.9725442342892
514930.7861328125	3.51080876717672	-0.1105842871985507	74.9725442342892
514939.8803710938	3.430321029462937	-0.1819826037972489	74.9725442342892
514948.974609375	3.562303610122635	-0.1124997829039203	74.9725442342892
514958.0688476563	3.471646722751466	-0.08380416888823911	74.9725442342892
514967.1630859375	3.553144163268109	-0.09305539976961796	74.9725442342892
514976.2573242188	3.461838181237958	-0.09142735316253944	74.9725442342892
514985.3515625	3.579829165915152	-0.05730629952278492	74.9725442342892
514994.4458007813	3.486503778279278	-0.05067556277969779	74.9725442342892
515003.5400390625	3.525233092931878	-0.06748283743213372	74.9725442342892
515012.6342773438	3.559995718001809	-0.03572444574302704	74.9725442342892
515021.728515625	3.473233398584533	-0.02696570141227929	74.9725442342892
515030.8227539063	3.519607605887366	-0.09585612382253642	74.9725442342892
515039.9169921875	3.574347922128192	0.01779802056837065	74.9725442342892
515049.0112304688	3.633271292838013	0.06742314615325798	74.9725442342892
515058.10546875	3.572761246295124	0.03167507295105911	74.9725442342892
515067.1997070313	3.740011303426183	0.1132477607173362	74.9725442342892
515076.2939453125	3.708349908393611	0.161701928380599	74.9725442342892
515085.3881835938	3.815089918981781	0.1918117949323378	74.9725442342892
515094.482421875	3.904953468436417	0.2545627798847869	74.9725442342892
515103.5766601563	4.080497512876692	0.4097341463927766	74.9725442342892
515112.6708984375	4.032176021596912	0.3882906114414719	74.9725442342892
515121.7651367188	4.087132702724064	0.3551781418288631	74.9725442342892
515130.859375	4.095210325146953	0.3546711436258629	74.9725442342892
515139.9536132813	3.914906253207476	0.2285992158259158	74.9725442342892
515149.0478515625	3.914185036919718	0.07988056827878956	74.9725442342892
515158.1420898438	3.704094732295839	0.00111774465541252	74.9725442342892
515167.236328125	3.585598896217215	-0.1986902907136779	74.9725442342892
515176.3305664063	3.440995030521755	-0.3304479617946884	74.9725442342892
515185.4248046875	3.518814267970833	-0.2959028470121122	74.9725442342892
515194.5190429688	3.403780270073446	-0.3229551409347106	74.9725442342892
515203.61328125	3.423974326130668	-0.3270449873337334	74.9725442342892
515212.7075195313	3.455275113019361	-0.3016178222839285	74.9725442342892
515221.8017578125	3.356756968111631	-0.2704316673941311	74.9725442342892
515230.8959960938	3.360940022580627	-0.3630030364454576	74.9725442342892
515239.990234375	3.379258916289678	-0.2664610939361708	75.83429761629252
515249.0844726563	3.387408660341342	-0.2403656153592811	75.83429761629252
515258.1787109375	3.275259527594987	-0.3022916434294712	75.83429761629252
515267.2729492188	3.383514092387449	-0.2474878353057679	75.83429761629252
515276.3671875	3.291270529183213	-0.2277234383111939	75.83429761629252
515285.4614257813	3.339447777205441	-0.2184906902593655	75.83429761629252
515294.5556640625	3.301295435583048	-0.2138821105464008	75.83429761629252
515303.6499023438	3.430321029462937	-0.1039568583954713	75.83429761629252
515312.744140625	3.334038655047257	-0.1062058925642837	75.83429761629252
515321.8383789063	3.369810982920049	-0.1172475561055543	75.83429761629252
515330.9326171875	3.407169986625909	-0.06605809066058958	75.83429761629252
515340.0268554688	3.311753071755538	-0.06411785342837861	75.83429761629252
515349.12109375	3.439408354688687	-0.07419516591161582	75.83429761629252
515358.2153320313	3.344568412848522	0.007393084619098267	75.83429761629252
515367.3095703125	3.418637325601259	-0.03388433218189954	75.83429761629252
515376.4038085938	3.309012449862057	-0.03721965333504815	75.83429761629252
515385.498046875	3.42873435362987	0.005540742926847767	75.83429761629252
515394.5922851563	3.334038655047257	-0.006123403185782491	75.83429761629252
515403.6865234375	3.38315348424357	0.01911801651715815	75.83429761629252
515412.7807617188	3.429599813175179	0.02918383887868477	75.83429761629252
515421.875	3.351564210839774	0.08505175727675518	75.83429761629252
515430.9692382813	3.407963324542442	-0.004576638160036423	75.83429761629252
515440.0634765625	3.457294518625083	0.1321359647142744	75.83429761629252
515449.1577148438	3.492561995096445	0.1524584786639908	75.83429761629252
515458.251953125	3.402770567270585	0.09027097168506817	75.83429761629252
515467.3461914063	3.540667121489897	0.1548979012634403	75.83429761629252
515476.4404296875	3.435658029992346	0.1433195219422261	75.83429761629252
515485.5346679688	3.458232099799168	0.1152611376753621	75.83429761629252
515494.62890625	3.482609210325386	0.105257318467874	75.83429761629252
515503.7231445313	3.485133467332538	0.1836679839039793	75.83429761629252
515512.8173828125	3.370748564094134	0.04467918121264936	75.83429761629252
515521.9116210938	3.396279620680764	0.044559569018289	75.83429761629252
515531.005859375	3.410848189693474	0.07430169402049935	75.83429761629252
515540.1000976563	3.317522802057601	0.02873210552806988	75.83429761629252
515549.1943359375	3.501432955435867	0.08047703148065195	75.83429761629252
515558.2885742188	3.464867289646541	0.1839799049824954	75.83429761629252
515567.3828125	3.540378634974794	0.1732502671981668	75.83429761629252
515576.4770507813	3.44467323358932	0.1344549647712322	75.83429761629252
515585.5712890625	3.544273202928687	0.161401503130779	75.83429761629252
515594.6655273438	3.430321029462937	0.1016747791167793	75.83429761629252
515603.759765625	3.471430357865138	0.09771279184595133	75.83429761629252
515612.8540039063	3.499629914716472	0.1030645752164611	75.83429761629252
515621.9482421875	3.405799675679169	0.1101677443902212	75.83429761629252
515631.0424804688	3.413011838556748	0.002110779959105406	75.83429761629252
515640.13671875	3.455130869761809	0.08748982812571907	75.83429761629252
515649.2309570313	3.488162575741121	0.1224239274057324	75.83429761629252
515658.3251953125	3.390798376893804	0.05002467689753466	75.83429761629252
515667.4194335938	3.522420349409622	0.1009148974690567	75.83429761629252
515676.513671875	3.436090759765001	0.1081294186600643	75.83429761629252
515685.6079101563	3.459386045859581	0.07974602116334806	75.83429761629252
515694.7021484375	3.389788674090943	0.02649669346093614	75.83429761629252
515703.7963867188	3.772970887776719	0.2409901717450106	75.83429761629252
515712.890625	4.605398727106897	0.8679787984722409	75.83429761629252
515721.9848632813	5.637098626744584	1.818283107554249	75.83429761629252
515731.0791015625	5.975926038733249	2.260772671815995	75.83429761629252
515740.1733398438	4.469449456864531	1.289012639399951	75.83429761629252
515749.267578125	3.539729540315812	-0.2971754635694196	75.83429761629252
515758.3618164063	3.371181293866789	-0.5671906653660508	75.83429761629252
515767.4560546875	3.492922603240324	-0.3796692190572679	75.83429761629252
515776.5502929688	3.329855600578261	-0.511323426418147	75.83429761629252
515785.64453125	3.441139273779306	-0.4167338672911637	75.83429761629252
515794.7387695313	3.364690347276968	-0.4404460082870316	75.83429761629252
515803.8330078125	3.417050649768192	-0.3734452069521629	75.83429761629252
515812.9272460938	3.467319425024918	-0.3473037712082752	75.83429761629252
515822.021484375	3.389644430833391	-0.2975576094207996	75.83429761629252
515831.1157226563	3.429744056432731	-0.3523746237163893	75.83429761629252
515840.2099609375	3.476406750250668	-0.2523530614954309	75.83429761629252
515849.3041992188	3.51131361857815	-0.1800183171609536	75.83429761629252
515858.3984375	3.43472044881826	-0.2533491109228553	75.83429761629252
515867.4926757813	3.531579796264148	-0.1695800987734607	75.83429761629252
515876.5869140625	3.452678734383432	-0.193263427671882	75.83429761629252
515885.6811523438	3.504245698958123	-0.1649646294107373	75.83429761629252
515894.775390625	3.519751849144918	-0.1492881125252044	75.83429761629252
515903.8696289063	3.553576893040764	-0.07688951770653146	75.83429761629252
515912.9638671875	3.480084953318233	-0.1350257680470852	75.83429761629252
515922.0581054688	3.530065242059856	-0.125302127382025	75.83429761629252
515931.15234375	3.573554584211658	-0.05166442037918355	75.83429761629252
515940.2465820313	3.509149969714877	-0.07830319063869001	75.83429761629252
515949.3408203125	3.652888375865028	-0.03154750201370832	75.83429761629252
515958.4350585938	3.623606994582057	0.04404497693209754	75.83429761629252
515967.529296875	3.808815337278287	0.1065336808207528	75.83429761629252
515976.6235351563	3.81133959428544	0.1895880339976705	75.83429761629252
515985.7177734375	3.955799216723349	0.2463601858763761	75.83429761629252
515994.8120117188	3.902501333058039	0.224694652533575	75.83429761629252
516003.90625	3.957530135813968	0.2312076394510532	75.83429761629252
516013.0004882813	3.977363583727311	0.2122751478776097	75.83429761629252
516022.0947265625	3.856776220414188	0.1739246372699595	75.83429761629252
516031.1889648438	3.652383524463597	-0.07250855229461728	75.83429761629252
516040.283203125	3.613293601667118	-0.166328101086767	75.83429761629252
516049.3774414063	3.559851474744257	-0.1663774672002655	75.83429761629252
516058.4716796875	3.455347234648137	-0.2681150783345383	75.83429761629252
516067.5659179688	3.508356631798343	-0.2496427091917622	75.83429761629252
516076.66015625	3.414310027874712	-0.251707938948782	75.83429761629252
516085.7543945313	3.444528990331768	-0.2697209667361477	75.83429761629252
516094.8486328125	3.447341733854024	-0.2314555867339224	75.83429761629252
516103.9428710938	3.477704939568632	-0.1729451355349814	75.83429761629252
516113.037109375	3.405150581020187	-0.2156039086403924	75.83429761629252
516122.1313476563	3.444961720104423	-0.1934295412451038	68.01632878987061
516131.2255859375	3.44928901783097	-0.1546663828863076	68.01632878987061
516140.3198242188	3.390221403863598	-0.1657516732298796	68.01632878987061
516149.4140625	3.467247303396142	-0.1536879893087622	68.01632878987061
516158.5083007813	3.379547402804781	-0.1166525095932534	68.01632878987061
516167.6025390625	3.417122771396968	-0.1540665337486921	68.01632878987061
516176.6967773438	3.356179995081424	-0.138634584591913	68.01632878987061
516185.791015625	3.430537394349265	-0.09830068053319098	68.01632878987061
516194.8852539063	3.365555806822277	-0.1022605867061997	68.01632878987061
516203.9794921875	3.392385052726871	-0.08138412770097268	68.01632878987061
516213.0737304688	3.403491783558343	-0.07680638733594306	68.01632878987061
516222.16796875	3.348679345688742	-0.04539307131861725	68.01632878987061
516231.2622070313	3.427724650827009	-0.06718088410880788	68.01632878987061
516240.3564453125	3.401905107725276	0.02518028518167589	68.01632878987061
516249.4506835938	3.414959122533694	-0.006766222424254648	68.01632878987061
516258.544921875	3.374354645532924	-0.01425571831582944	68.01632878987061
516267.6391601563	3.452750856012208	0.04636691695542767	68.01632878987061
516276.7333984375	3.379475281176005	0.02365090459219446	68.01632878987061
516285.8276367188	3.413372446700627	0.0379126700657989	68.01632878987061
516294.921875	3.417988230942277	0.03855672698454827	68.01632878987061
516304.0161132813	3.454986626504258	0.1079118019080293	68.01632878987061
516313.1103515625	3.419863393290448	0.07057414223335065	68.01632878987061
516322.2045898438	3.480157074947009	0.1115412807256762	68.01632878987061
516331.298828125	3.514486970244285	0.1616055696223572	68.01632878987061
516340.3930664063	3.475397047447807	0.1490152120888852	68.01632878987061
516349.4873046875	3.561438150577325	0.1676209877328082	68.01632878987061
516358.5815429688	3.489677129945413	0.18209385455866	68.01632878987061
516367.67578125	3.539513175429485	0.1539619360931844	68.01632878987061
516376.7700195313	3.466237600593281	0.1377959838394191	68.01632878987061
516385.8642578125	3.512972416039994	0.1393554737991716	68.01632878987061
516394.9584960938	3.438759260029705	0.1008282623303596	68.01632878987061
516404.052734375	3.485494075476417	0.1075050976665995	68.01632878987061
516413.1469726563	3.50121659054954	0.1097390149355378	68.01632878987061
516422.2412109375	3.427724650827009	0.1113151667821461	68.01632878987061
516431.3354492188	3.508933604828549	0.07368373018123403	68.01632878987061
516440.4296875	3.47070914157738	0.1474081197376725	68.01632878987061
516449.5239257813	3.487369237824588	0.1038345777338094	68.01632878987061
516458.6181640625	3.445827179649732	0.08572481528209308	68.01632878987061
516467.7124023438	3.522780957553501	0.1392194891394925	68.01632878987061
516476.806640625	3.451669031580571	0.1037165020233754	68.01632878987061
516485.9008789063	3.491696535551135	0.1172737164606236	68.01632878987061
516494.9951171875	3.518525781455729	0.1231630971571973	68.01632878987061
516504.0893554688	3.529632512287201	0.1805128577001556	68.01632878987061
516513.18359375	3.465876992449402	0.1003151516194598	68.01632878987061
516522.2778320313	3.493283211384203	0.1035669290128169	68.01632878987061
516531.3720703125	3.476695236765771	0.1155717491520404	68.01632878987061
516540.4663085938	3.399164485831796	0.04967819403646537	68.01632878987061
516549.560546875	3.433205894613969	0.03989464051389827	68.01632878987061
516558.6547851563	3.353078765044065	0.02670165768681252	68.01632878987061
516567.7490234375	3.390149282234822	0.009294279269840281	68.01632878987061
516576.8432617188	3.395558404393006	0.03797772922762745	68.01632878987061
516585.9375	3.530425850203735	0.1389199949777772	68.01632878987061
516595.0317382813	3.518525781455729	0.1755227990264662	68.01632878987061
516604.1259765625	3.541532581035207	0.1785697590899823	68.01632878987061
516613.2202148438	3.530930701605166	0.1564748695400777	68.01632878987061
516622.314453125	3.479003128886596	0.14059261022553	68.01632878987061
516631.4086914063	3.492489873467669	0.09024443978624691	68.01632878987061
516640.5029296875	3.453616315557518	0.103671974503792	68.01632878987061
516649.5971679688	3.473305520213309	0.08060484192514422	68.01632878987061
516658.69140625	3.478714642371493	0.09217097154770733	68.01632878987061
516667.7856445313	3.565188475273666	0.1594759977386967	68.01632878987061
516676.8798828125	3.489605008316637	0.131016336295047	68.01632878987061
516685.9741210938	3.435874394878673	0.06553799435687133	68.01632878987061
516695.068359375	3.367575212427999	-0.01657160136412979	68.01632878987061
516704.1625976563	3.330504695237243	-0.02840542333731112	68.01632878987061
516713.2568359375	3.291847502213419	-0.08125502567484202	68.01632878987061
516722.3510742188	3.261195809983708	-0.08194893550775018	68.01632878987061
516731.4453125	3.217273738059251	-0.1147078517531728	68.01632878987061
516740.5395507813	3.412723352041645	-0.01682539108146792	68.01632878987061
516749.6337890625	4.208801890468823	0.5557440626991429	68.01632878987061
516758.7280273438	5.24273756059856	1.497108677448398	68.01632878987061
516767.822265625	5.166504998982549	1.806344255102247	68.01632878987061
516776.9165039063	3.663778741810172	0.5703908941967802	68.01632878987061
516786.0107421875	3.456429059079774	-0.4293648998984267	68.01632878987061
516795.1049804688	3.477416453053529	-0.1431534746339627	68.01632878987061
516804.19921875	3.473810371614739	-0.1630561993907058	68.01632878987061
516813.2934570313	3.389788674090943	-0.2865641195150672	68.01632878987061
516822.3876953125	3.329062262661727	-0.2402633902490252	68.01632878987061
516831.4819335938	3.377023145797628	-0.3464575264360529	68.01632878987061
516840.576171875	3.402986932156912	-0.1705570162019586	68.01632878987061
516849.6704101563	3.392817782499526	-0.2249030718483132	68.01632878987061
516858.7646484375	3.339375655576665	-0.2296917736246371	68.01632878987061
516867.8588867188	3.379763767691108	-0.2022598881760007	68.01632878987061
516876.953125	3.369883104548824	-0.1989052615618238	68.01632878987061
516886.0473632813	3.386254714280929	-0.1360776806184361	68.01632878987061
516895.1416015625	3.419430663517793	-0.1575894706226924	68.01632878987061
516904.2358398438	3.459890897261011	-0.04313301019482606	68.01632878987061
516913.330078125	3.430465272720489	-0.09171683148047231	68.01632878987061
516922.4243164063	3.452750856012208	-0.05989230870599561	68.01632878987061
516931.5185546875	3.437965922113171	-0.05773273036609784	68.01632878987061
516940.6127929688	3.429671934803955	-0.06960943617157933	68.01632878987061
516949.70703125	3.467607911540021	-0.03412168913939425	68.01632878987061
516958.8012695313	3.453760558815069	-0.02807079604885074	68.01632878987061
516967.8955078125	3.523213687326156	0.01570394592851243	68.01632878987061
516976.9897460938	3.506048739677518	0.03061579959288168	68.01632878987061
516986.083984375	3.55963510985793	0.05870032967242656	68.01632878987061
516995.1782226563	3.586103747618645	0.08006147704328573	68.01632878987061
517004.2724609375	3.651013213516857	0.1438371365979522	68.01632878987061
517013.3666992188	3.713254179150364	0.1731800696871826	68.01632878987061
517022.4609375	3.729697910511245	0.2169619119021378	68.01632878987061
517031.5551757813	3.812277175459526	0.2254448157601838	68.01632878987061
517040.6494140625	3.909064401276637	0.3146863186977909	68.01632878987061
517049.7436523438	3.9490919052472	0.3546443575849942	68.01632878987061
517058.837890625	3.933802119946733	0.3026927422002675	68.01632878987061
517067.9321289063	3.91533898298013	0.2741909367631329	68.01632878987061
517077.0263671875	3.773836347322029	0.1412451348126557	68.01632878987061
517086.1206054688	3.681664905746568	0.01161344743273234	68.01632878987061
517095.21484375	3.645964699502552	-0.05604003321379164	68.01632878987061
517104.3090820313	3.556173271676692	-0.09624315334629235	68.01632878987061
517113.4033203125	3.484772859188659	-0.2001623317463642	68.01632878987061
517122.4975585938	3.487080751309485	-0.2026547072238083	68.01632878987061
517131.591796875	3.530425850203735	-0.1536874047506461	68.01632878987061
517140.6860351563	3.518670024713281	-0.1391276065700443	68.01632878987061
517149.7802734375	3.53136343137782	-0.1299887972442824	68.01632878987061
517158.8745117188	3.532877985582112	-0.1239043357238771	68.01632878987061
517167.96875	3.542037432436637	-0.09910871790600241	68.01632878987061
517177.0629882813	3.501000225663213	-0.1275267501022873	68.01632878987061
517186.1572265625	3.589709829057435	-0.08514658944168382	68.01632878987061
517195.2514648438	3.626852467876967	-0.007109878221255125	68.01632878987061
517204.345703125	3.618558480567751	-0.005778158776461964	68.01632878987061
517213.4399414063	3.61343784492467	-0.02998291033049372	68.01632878987061
517222.5341796875	3.565621205046321	-0.04351966286181572	68.01632878987061
517231.6284179688	3.550692027889732	-0.08784998455213799	68.01632878987061
517240.72265625	3.492489873467669	-0.1095596131753939	68.01632878987061
517249.8168945313	3.475469169076582	-0.1519579397186061	68.01632878987061
517258.9111328125	3.444961720104423	-0.1774755359231986	68.01632878987061
517268.0053710938	3.471502479493914	-0.1467004339516992	68.01632878987061
517277.099609375	3.453111464156087	-0.141325635819658	68.01632878987061
517286.1938476563	3.455996329307119	-0.13047063420851	68.01632878987061
517295.2880859375	3.465516384305523	-0.1211442739614466	68.01632878987061
517304.3823242188	3.460539991919994	-0.09557672414883635	68.01632878987061
517313.4765625	3.442653827983598	-0.1108479766099082	68.01632878987061
517322.5708007813	3.447846585255455	-0.1010222276427154	68.01632878987061
517331.6650390625	3.464795168017765	-0.07310199889193048	68.01632878987061
517340.7592773438	3.429816178061507	-0.07949858955196199	68.01632878987061
517349.853515625	3.443158679385028	-0.08076449457526058	68.01632878987061
517358.9477539063	3.413588811586954	-0.07635927572540738	68.01632878987061
517368.0419921875	3.42188279889617	-0.07459367653851948	68.01632878987061
517377.1362304688	3.401183891437518	-0.07423005637103114	68.01632878987061
517386.23046875	3.417050649768192	-0.05636552756095768	68.01632878987061
517395.3247070313	3.369666739662497	-0.0704595214435603	68.01632878987061
517404.4189453125	3.358560008831026	-0.08569060066065387	68.01632878987061
517413.5131835938	3.364329739133089	-0.07421866492554427	68.01632878987061
517422.607421875	3.345866602166487	-0.0575974626073172	68.01632878987061
517431.7016601563	3.382576511213364	-0.04695845636770804	68.01632878987061
517440.7958984375	3.345794480537711	-0.02255252733665329	68.01632878987061
517449.8901367188	3.365411563564726	-0.03337609633366969	68.01632878987061
517458.984375	3.348751467317518	-0.01556385256810061	68.01632878987061
517468.0786132813	3.383297727501122	0.01160247785413304	68.01632878987061
517477.1728515625	3.367575212427999	0.01737972629882384	68.01632878987061
517486.2670898438	3.379331037918453	0.03615067949920135	68.01632878987061
517495.361328125	3.38178317329683	0.03466934255022846	68.01632878987061
517504.4555664063	3.378032848600489	0.05819501283080145	68.01632878987061
517513.5498046875	3.341539304439939	0.0257625054688604	68.01632878987061
517522.6440429688	3.355819386937545	0.02996770861248109	68.01632878987061
517531.73828125	3.37990801094866	0.065901952278831	68.01632878987061
517540.8325195313	3.356756968111631	0.06564307521639831	68.01632878987061
517549.9267578125	3.381855294925606	0.06994550996375612	68.01632878987061
517559.0209960938	3.356829089740407	0.07794242992815526	68.01632878987061
517568.115234375	3.360723657694299	0.07077937947599372	68.01632878987061
517577.2094726563	3.348462980802415	0.06642646769057471	68.01632878987061
517586.3037109375	3.395558404393006	0.1029537585650704	68.01632878987061
517595.3979492188	3.378609821630696	0.1124283756617726	68.01632878987061
517604.4921875	3.391808079696665	0.1131641944999448	68.01632878987061
517613.5864257813	3.393178390643405	0.1176276093345426	68.01632878987061
517622.6806640625	3.344063561447092	0.1005150245405944	68.01632878987061
517631.7749023438	3.374498888790475	0.07922102859768225	68.01632878987061
517640.869140625	3.309589422892263	0.08591389801952952	68.01632878987061
517649.9633789063	3.328990141032951	0.04930174283724412	68.01632878987061
517659.0576171875	3.347236913113227	0.08591624990959858	68.01632878987061
517668.1518554688	3.409982730148164	0.1451322085695748	68.01632878987061
517677.24609375	3.39137534992401	0.1421134187128736	68.01632878987061
517686.3403320313	3.41416578461716	0.1490384672489838	68.01632878987061
517695.4345703125	3.415608217192676	0.1351577382172893	68.01632878987061
517704.5288085938	3.355963630195097	0.1226145058674891	68.01632878987061
517713.623046875	3.372767969699856	0.07577500805849349	68.01632878987061
517722.7172851563	3.433205894613969	0.1476331543421342	68.01632878987061
517731.8115234375	3.496023833277683	0.2080652677051106	68.01632878987061
517740.9057617188	3.462631519154491	0.1958860892269514	68.01632878987061
517750	3.498331725398508	0.1929919274236193	68.01632878987061
517759.0942382813	3.460179383776115	0.178070124664677	68.01632878987061
517768.1884765625	3.474675831160049	0.1667634844885239	68.01632878987061
517777.2827148438	3.359497590005111	0.09490553828580461	68.01632878987061
517786.376953125	3.348967832203845	0.0360224846638867	68.01632878987061
517795.4711914063	3.223620441391521	-0.02747450734203758	68.01632878987061
517804.5654296875	3.307281530771438	-0.03305336919796654	68.01632878987061
517813.6596679688	3.825619676783047	0.3133860966623467	68.01632878987061
517822.75390625	4.861791117404833	1.164086231935312	68.01632878987061
517831.8481445313	5.976575133392231	2.16523220263136	68.01632878987061
517840.9423828125	4.250920921673885	1.544024070752509	68.01632878987061
517850.0366210938	3.589781950686211	-0.2451167866662217	68.01632878987061
517859.130859375	3.473305520213309	-0.223478109701312	68.01632878987061
517868.2250976563	3.544633811072566	-0.07857730427613127	68.01632878987061
517877.3193359375	3.494509279073391	-0.3061389237464949	68.01632878987061
517886.4135742188	3.452246004610778	-0.08737889384676148	68.01632878987061
517895.5078125	3.428878596887421	-0.3514165483702107	68.01632878987061
517904.6020507813	3.372623726442305	-0.1927675463450027	68.01632878987061
517913.6962890625	3.447125368967697	-0.2728852864770314	68.01632878987061
517922.7905273438	3.450082355747504	-0.1773018225513626	68.01632878987061
517931.884765625	3.54506654084522	-0.09016772024375191	68.01632878987061
517940.9790039063	3.45974665400346	-0.1702162500340632	68.01632878987061
517950.0732421875	3.442798071241149	-0.1170197037705884	68.01632878987061
517959.1674804688	3.495086252103597	-0.2095637383224172	68.01632878987061
517968.26171875	3.530642215090063	-0.01043025393521082	68.01632878987061
517977.3559570313	3.528262201340461	-0.1221332364174804	68.01632878987061
517986.4501953125	3.551918095578921	-0.03187986156377246	68.01632878987061
517995.5444335938	3.496168076535234	-0.08090507662644729	68.01632878987061
518004.638671875	3.700632894114601	-0.01510269558001446	68.01632878987061
518013.7329101563	3.724360909981836	0.1735335289398442	68.01632878987061
518022.8271484375	3.516866983993886	-0.04801212464791996	68.01632878987061
518031.9213867188	3.638103441965991	-0.05526524601138372	68.01632878987061
518041.015625	3.813070513376059	0.1268226521680638	68.01632878987061
518050.1098632813	3.811772324058095	0.2126680904171497	68.01632878987061
518059.2041015625	3.738136141078012	0.07068151071169206	68.01632878987061
518068.2983398438	3.863627775147888	0.1348985993261742	68.01632878987061
518077.392578125	3.96777140710013	0.2385394918436177	68.01632878987061
518086.4868164063	4.034123305573858	0.2785935587729302	68.01632878987061
518095.5810546875	4.110067380674765	0.2941153516991281	68.01632878987061
518104.6752929688	4.11410619188621	0.3026317846000525	68.01632878987061
518113.76953125	4.297295128976718	0.3599941960342233	68.01632878987061
518122.8637695313	4.091892730223266	0.3071130507359335	68.01632878987061
518131.9580078125	4.010539532964174	0.07938315180935643	68.01632878987061
518141.0522460938	3.928825727561203	-0.01368369708836973	68.01632878987061
518150.146484375	3.902212846542936	-0.02795991562625844	68.01632878987061
518159.2407226563	3.909280766162964	-0.105708981733805	68.01632878987061
518168.3349609375	3.980104205620791	-0.003408626414846121	68.01632878987061
518177.4291992188	3.733880964980241	-0.1576732082489783	68.01632878987061
518186.5234375	3.717869963392015	-0.3113609267682218	68.01632878987061
518195.6176757813	3.634930090299856	-0.2979586030650543	68.01632878987061
518204.7119140625	3.564323015728357	-0.3840735949967791	68.01632878987061
518213.8061523438	3.51405424047163	-0.4241554196670193	68.01632878987061
518222.900390625	3.468617614342882	-0.4317195177418076	68.01632878987061
518231.9946289063	3.49674504956544	-0.4210126253391893	68.01632878987061
518241.0888671875	3.482825575211713	-0.374449725811296	68.01632878987061
518250.1831054688	3.464650924760214	-0.3739766719812827	68.01632878987061
518259.27734375	3.441572003551961	-0.381971073798817	68.01632878987061
518268.3715820313	3.470492776691053	-0.3315220514677403	68.01632878987061
518277.4658203125	3.506048739677518	-0.2881805115481708	68.01632878987061
518286.5600585938	3.46933883063064	-0.2548866992122422	68.01632878987061
518295.654296875	3.453544193928742	-0.2890424854198769	68.01632878987061
518304.7485351563	3.465876992449402	-0.249768162418902	68.01632878987061
518313.8427734375	3.460467870291218	-0.2224004994793398	68.01632878987061
518322.9370117188	3.460612113548769	-0.2198965076976144	68.01632878987061
518332.03125	3.487874089226018	-0.1687425979315519	68.01632878987061
518341.1254882813	3.519896092402469	-0.1337019366573592	68.01632878987061
518350.2197265625	3.523790660356362	-0.09036925024307242	68.01632878987061
518359.3139648438	3.50395721244302	-0.105149429270108	68.01632878987061
518368.408203125	3.490037738089292	-0.1019344061154788	68.01632878987061
518377.5024414063	3.449072652944643	-0.1183455297591281	68.01632878987061
518386.5966796875	3.452967220898536	-0.1231141789209265	68.01632878987061
518395.6909179688	3.471790966009017	-0.08286094515244746	68.01632878987061
518404.78515625	3.454193288587724	-0.07219994771049712	68.01632878987061
518413.8793945313	3.482464967067834	-0.05727789984442261	68.01632878987061
518422.9736328125	3.492850481611548	-0.01680038106036753	68.01632878987061
518432.0678710938	3.514270605357958	0.006120247112963307	68.01632878987061
518441.162109375	3.529704633915977	0.02901359035981221	68.01632878987061
518450.2563476563	3.542686527095619	0.05665551812622768	68.01632878987061
518459.3505859375	3.505399645018536	0.03750706021984298	68.01632878987061
518468.4448242188	3.502659023125056	0.02553088452988028	68.01632878987061
518477.5390625	3.507851780396913	0.03822804339510605	68.01632878987061
518486.6333007813	3.488234697369897	0.0415171803291676	68.01632878987061
518495.7275390625	3.486359535021727	0.02924544035196991	68.01632878987061
518504.8217773438	3.451164180179141	0.02611287279091468	68.01632878987061
518513.916015625	3.384307430303983	-0.02347598205339912	68.01632878987061
518523.0102539063	3.369089766632291	-0.05518482260081727	68.01632878987061
518532.1044921875	3.438038043741947	0.01025142483356882	68.01632878987061
518541.1987304688	3.459169680973254	0.06089725083753919	68.01632878987061
518550.29296875	3.462054546124285	0.06232535934414749	68.01632878987061
518559.3872070313	3.452318126239554	0.06403869109921742	68.01632878987061
518568.4814453125	3.448135071770558	0.07006476791498552	68.01632878987061
518577.5756835938	3.442581706354822	0.06655487342163821	68.01632878987061
518586.669921875	3.455058748133034	0.08516800921856332	68.01632878987061
518595.7641601563	3.461333329836527	0.09923839403202733	68.01632878987061
518604.8583984375	3.417339136283295	0.08426517186589144	68.01632878987061
518613.9526367188	3.42599373173639	0.06718315374911016	68.01632878987061
518623.046875	3.437172584196638	0.09710787085979337	68.01632878987061
518632.1411132813	3.43832653025705	0.1104899911792519	68.01632878987061
518641.2353515625	3.429167083402525	0.1008466955487609	68.01632878987061
518650.3295898438	3.393394755529732	0.09322968152505304	68.01632878987061
518659.423828125	3.366853996140241	0.05588729827407803	68.01632878987061
518668.5180664063	3.363031549815124	0.06322194659091951	68.01632878987061
518677.6123046875	3.224413779308055	-0.002465694619617442	68.01632878987061
518686.7065429688	3.250666052182443	-0.06056847993269755	68.01632878987061
518695.80078125	3.768571468421396	0.2887296836588056	68.01632878987061
518704.8950195313	4.775173041245108	1.12675263297343	68.01632878987061
518713.9892578125	5.319763460131105	1.82929317284794	68.01632878987061
518723.0834960938	3.79266009243251	0.9945180460323954	68.01632878987061
518732.177734375	3.203210020447972	-0.4333631122526245	68.01632878987061
518741.2719726563	3.165923138370888	-0.3532700114238056	68.01632878987061
518750.3662109375	3.33295683061562	-0.1609097176147098	68.01632878987061
518759.4604492188	3.351203602695895	-0.177442709656442	68.01632878987061
518768.5546875	3.363680644474107	-0.01460905310838979	68.01632878987061
518777.6489257813	3.365988536594932	-0.1411164907018928	68.01632878987061
518786.7431640625	3.393322633900957	0.007901505064416448	68.01632878987061
518795.8374023438	3.42188279889617	-0.02659158974035183	68.01632878987061
518804.931640625	3.445755058020957	0.03589318609999072	68.01632878987061
518814.0258789063	3.443519287528907	0.06126372034357321	68.01632878987061
518823.1201171875	3.424407055903322	0.006600457109547278	68.01632878987061
518832.2143554688	3.45563572116324	0.08211820689144458	68.01632878987061
518841.30859375	3.488883792028879	0.05830005875081044	68.01632878987061
518850.4028320313	3.590791653489072	0.192280852927571	68.01632878987061
518859.4970703125	3.600888681517683	0.1925446665629521	68.01632878987061
518868.5913085938	3.586824963906403	0.2004772631250142	68.01632878987061
518877.685546875	3.54643685179196	0.1388881850552284	68.01632878987061
518886.7797851563	3.576006719590035	0.1410696662030538	68.01632878987061
518895.8740234375	3.638319806852318	0.1979895663348773	68.01632878987061
518904.9682617188	3.687578879306183	0.230240217908452	68.01632878987061
518914.0625	3.710441435628109	0.2661976096794237	68.01632878987061
518923.1567382813	3.7119559898324	0.2308251556294185	68.01632878987061
518932.2509765625	3.68678554138965	0.2272622131934074	68.01632878987061
518941.3452148438	3.729553667253693	0.1943761556848267	68.01632878987061
518950.439453125	3.814008094550144	0.2717409701461719	68.01632878987061
518959.5336914063	3.869469627078727	0.298211825932488	68.01632878987061
518968.6279296875	3.872282370600984	0.2996749171991236	68.01632878987061
518977.7221679688	3.855622274353776	0.2626564075060019	68.01632878987061
518986.81640625	3.937047593241644	0.2651577060022715	68.01632878987061
518995.9106445313	3.989480017361643	0.3385642694609463	68.01632878987061
519005.0048828125	4.005274654063541	0.3114228976961886	68.01632878987061
519014.0991210938	3.996475815352895	0.2900601669574617	68.01632878987061
519023.193359375	3.961064095623982	0.2300310968354145	68.01632878987061
519032.2875976563	3.911083806882359	0.1599469174576722	68.01632878987061
519041.3818359375	3.86290655886013	0.09221199467577523	68.01632878987061
519050.4760742188	3.80859897239196	0.02559358910185609	68.01632878987061
519059.5703125	3.777730915275921	-0.02274052475652751	68.01632878987061
519068.6645507813	3.816604473186073	-0.02103039111196764	68.01632878987061
519077.7587890625	3.776937577359388	-0.01576761802094032	68.01632878987061
519086.8530273438	3.75890717016544	-0.07388877078512264	68.01632878987061
519095.947265625	3.775999996185302	-0.06440988054575265	68.01632878987061
519105.0415039063	3.749098628651933	-0.06617530518112265	68.01632878987061
519114.1357421875	3.700849259000929	-0.1257492117236549	68.01632878987061
519123.2299804688	3.618558480567751	-0.1814341099771388	68.01632878987061
519132.32421875	3.306271827968577	-0.3876043811069312	68.01632878987061
519141.4184570313	3.306271827968577	-0.5384638865474447	68.01632878987061
519150.5126953125	3.494437157444615	-0.3266162737257343	68.01632878987061
519159.6069335938	3.494437157444615	-0.1986552236811863	68.01632878987061
519168.701171875	3.685703716958013	-0.1529036758369501	68.01632878987061
519177.7954101563	3.685703716958013	0.01327016004261017	68.01632878987061
519186.8896484375	3.790063713796582	0.002354135781630698	68.01632878987061
519195.9838867188	3.752776831719498	0.04651243776585205	68.01632878987061
519205.078125	3.752776831719498	0.02024540771406492	68.01632878987061
519214.1723632813	3.805569863983377	0.0110165452584817	68.01632878987061
519223.2666015625	3.860598666739305	0.1213645721099704	68.01632878987061
519232.3608398438	3.932071200856114	0.112966756189796	68.01632878987061
519241.455078125	3.915915956010337	0.1653219101657671	68.01632878987061
519250.5493164063	3.919305672562799	0.100418174653828	68.01632878987061
519259.6435546875	3.801458931143157	0.03848080258431973	68.01632878987061
519268.7377929688	3.783717010464312	-0.0425296667271739	68.01632878987061
519277.83203125	3.71779784176324	-0.08926435279851536	68.01632878987061
519286.9262695313	3.702796542977875	-0.1009138368414659	68.01632878987061
519296.0205078125	3.708926881423817	-0.1348284936540817	68.01632878987061
519305.1147460938	3.727462140019195	-0.06859112907555695	68.01632878987061
519314.208984375	3.670486053286321	-0.1308452511508292	68.01632878987061
519323.3032226563	3.634136752383322	-0.1543173415075571	68.01632878987061
519332.3974609375	3.592378329322139	-0.1919293408139237	68.01632878987061
519341.4916992188	3.582497666179856	-0.2014030051910014	68.01632878987061
519350.5859375	3.619279696855509	-0.1624629211640324	68.01632878987061
519359.6801757813	3.596200775647256	-0.1521888100740466	68.01632878987061
519368.7744140625	3.592017721178261	-0.162773216866403	68.01632878987061
519377.8686523438	3.561798758721204	-0.1918373135584842	68.01632878987061
519386.962890625	3.525954309219636	-0.1895976293076946	68.01632878987061
519396.0571289063	3.481599507522525	-0.2362156595315769	68.01632878987061
519405.1513671875	3.549538081829319	-0.182340650698907	68.01632878987061
519414.2456054688	3.713398422407916	-0.04023041851072604	68.01632878987061
519423.33984375	3.846895557271905	0.124826451893857	68.01632878987061
519432.4340820313	3.768066617019966	0.1172743506859688	68.01632878987061
519441.5283203125	3.704743826954821	-1.722677064997739e-05	68.01632878987061
519450.6225585938	3.644738631813363	-0.03532326902006965	68.01632878987061
519459.716796875	3.607091141592401	-0.08377687297773728	68.01632878987061
519468.8110351563	3.615745737045495	-0.08229480381740227	68.01632878987061
519477.9052734375	3.574347922128192	-0.08124686321031187	68.01632878987061
519486.9995117188	3.577088544021672	-0.1039962820335105	68.01632878987061
519496.09375	3.56648666459163	-0.08384900824698728	68.01632878987061
519505.1879882813	3.532877985582112	-0.09839261125809294	68.01632878987061
519514.2822265625	3.546653216678288	-0.1043867132891142	68.01632878987061
519523.3764648438	3.550475663003405	-0.06307114735146858	68.01632878987061
519532.470703125	3.535257999331713	-0.07263904315839175	68.01632878987061
519541.5649414063	3.472440060667999	-0.1001979870030117	68.01632878987061
519550.6591796875	3.391231106666459	-0.1633572656319894	68.01632878987061
519559.7534179688	3.465444262676747	-0.14402465634751	68.01632878987061
519568.84765625	4.068597444128685	0.2661033946034001	68.01632878987061
519577.9418945313	4.981729386058973	1.083456956356697	68.01632878987061
519587.0361328125	5.062289245401531	1.47026935763074	68.01632878987061
519596.1303710938	3.577449152165551	0.4036434061606155	68.01632878987061
519605.224609375	3.325600424480489	-0.6485469475845975	68.01632878987061
519614.3188476563	3.403924513330998	-0.3247999817389166	68.01632878987061
519623.4130859375	3.533238593725991	-0.1946995716568423	68.01632878987061
519632.5073242188	3.527901593196582	-0.2175391689880354	68.01632878987061
519641.6015625	3.49075895437705	-0.1128622611216177	68.01632878987061
519650.6958007813	3.535257999331713	-0.2224080546174947	68.01632878987061
519659.7900390625	3.534176174900076	-0.06021552174062549	68.01632878987061
519668.8842773438	3.569948502772868	-0.1142428471673324	68.01632878987061
519677.978515625	3.555956906790365	-0.05834682110485937	68.01632878987061
519687.0727539063	3.589709829057435	-0.03224381114713981	68.01632878987061
519696.1669921875	3.593892883526431	-0.04285183866082164	68.01632878987061
519705.2612304688	3.59151286977683	0.02459139510635099	68.01632878987061
519714.35546875	3.642791347836417	-0.01881512236297943	68.01632878987061
519723.4497070313	3.663922985067724	0.1030418951635269	68.01632878987061
519732.5439453125	3.672289094005715	0.04819955563270548	68.01632878987061
519741.6381835938	3.658874471053419	0.0819826235955974	68.01632878987061
519750.732421875	3.684766135783927	0.0731806301778696	68.01632878987061
519759.8266601563	3.654547173326871	0.06866858761586908	68.01632878987061
519768.9208984375	3.672866067035922	0.07658750614159721	68.01632878987061
519778.0151367188	3.68815585233639	0.06891423151528231	68.01632878987061
519787.109375	3.75342592637848	0.1498815191653019	68.01632878987061
519796.2036132813	3.750541061227449	0.1342266721570557	68.01632878987061
519805.2978515625	3.809680796823597	0.1840184574481017	68.01632878987061
519814.3920898438	3.862834437231355	0.2092396087783895	68.01632878987061
519823.486328125	3.908703793132758	0.2551207892895599	68.01632878987061
519832.5805664063	4.003327370086595	0.2777282701213962	68.01632878987061
519841.6748046875	4.042345171254298	0.3417781578423142	68.01632878987061
519850.7690429688	4.165961642976003	0.3861018962707986	68.01632878987061
519859.86328125	4.145479100403679	0.4018988512857078	68.01632878987061
519868.9575195313	4.137112991465688	0.3478883364021193	68.01632878987061
519878.0517578125	4.028858426673225	0.2322319449552484	68.01632878987061
519887.1459960938	3.94498097240698	0.1396942685348185	68.01632878987061
519896.240234375	3.8373755022735	-0.0002589454184929348	68.01632878987061
519905.3344726563	3.759700508081974	-0.05976789433284706	68.01632878987061
519914.4287109375	3.731861559374519	-0.1296089261388113	68.01632878987061
519923.5229492188	3.65577324101606	-0.147449008421983	68.01632878987061
519932.6171875	3.606514168562194	-0.2168039661124679	68.01632878987061
519941.7114257813	3.567135759250613	-0.2403077100361444	68.01632878987061
519950.8056640625	3.581776449892098	-0.2134923954609438	68.01632878987061
519959.8999023438	3.536051337248247	-0.2307954820003448	68.01632878987061
519968.994140625	3.545355027360324	-0.2116415795415081	68.01632878987061
519978.0883789063	3.542686527095619	-0.2056562446279253	68.01632878987061
519987.1826171875	3.538142864482745	-0.1684688595535321	68.01632878987061
519996.2768554688	3.493788062785633	-0.2014077733594563	68.01632878987061
520005.37109375	3.528262201340461	-0.1715783726372182	68.01632878987061
520014.4653320313	3.542542283838068	-0.1232421863126503	68.01632878987061
520023.5595703125	3.533887688384973	-0.112555815579233	68.01632878987061
520032.6538085938	3.559995718001809	-0.08935789723854759	68.01632878987061
520041.748046875	3.537998621225193	-0.07209983172136562	68.01632878987061
520050.8422851563	3.611274196061396	-0.03449609455775325	68.01632878987061
520059.9365234375	3.588483761368246	0.004834836640976414	68.01632878987061
520069.0307617188	3.626491859733088	0.0136271501449641	68.01632878987061
520078.125	3.599518370570943	0.01892204066438007	68.01632878987061
520087.2192382813	3.617981507537545	0.03202290271741776	68.01632878987061
520096.3134765625	3.607163263221176	0.02511065967351786	68.01632878987061
520105.4077148438	3.600672316631355	0.04020911111977708	68.01632878987061
520114.501953125	3.630314306058205	0.03900243889663742	68.01632878987061
520123.5961914063	3.592666815837243	0.05876122303485708	68.01632878987061
520132.6904296875	3.598436546139306	0.02692594981405372	68.01632878987061
520141.7846679688	3.589349220913556	0.04041089834032857	68.01632878987061
520150.87890625	3.637021617534354	0.07486934068292948	68.01632878987061
520159.9731445313	3.598436546139306	0.06735173646271546	68.01632878987061
520169.0673828125	3.621010615946128	0.07202296746443182	68.01632878987061
520178.1616210938	3.587113450421506	0.05588249149700736	68.01632878987061
520187.255859375	3.614880277500186	0.07275928951381575	68.01632878987061
520196.3500976563	3.568433948568577	0.05213635564102479	68.01632878987061
520205.4443359375	3.593099545609897	0.05384713944117735	68.01632878987061
520214.5385742188	3.569371529742662	0.05646937360931058	68.01632878987061
520223.6328125	3.527757349939031	0.02808143431393963	68.01632878987061
520232.7270507813	3.548600500655234	0.01711667234604576	68.01632878987061
520241.8212890625	3.50806814528324	0.0315139920871633	68.01632878987061
520250.9155273438	3.646036821131327	0.07754604604702881	68.01632878987061
520260.009765625	3.617116047992235	0.1551185968686947	68.01632878987061
520269.1040039063	3.668538769309374	0.1327096728153544	68.01632878987061
520278.1982421875	3.617116047992235	0.1133623555626732	68.01632878987061
520287.2924804688	3.58329100409639	0.09075283117598171	68.01632878987061
520296.38671875	3.548239892511355	0.02177631631436367	68.01632878987061
520305.4809570313	3.533671323498646	0.0477430143219266	68.01632878987061
520314.5751953125	3.5659818131902	0.03201500514363125	68.01632878987061
520323.6694335938	3.544128959671135	0.07054158983317478	68.01632878987061
520332.763671875	3.537061040051108	0.03926712572117444	68.01632878987061
520341.8579101563	3.513405145812648	0.02854065270225923	68.01632878987061
520350.9521484375	3.548239892511355	0.05910742177825593	68.01632878987061
520360.0463867188	3.507419050624258	0.03988602147999007	68.01632878987061
520369.140625	3.53821498611152	0.0586365112794893	68.01632878987061
520378.2348632813	3.517155470508989	0.05078481174752537	68.01632878987061
520387.3291015625	3.403636026815895	0.002818594401951258	68.01632878987061
520396.4233398438	3.443014436127477	-0.05899973999471522	68.01632878987061
520405.517578125	4.03700817072489	0.345410645185374	68.01632878987061
520414.6118164063	5.0025004151464	1.183835266952915	68.01632878987061
520423.7060546875	5.612793637847142	1.869434668615807	68.01632878987061
520432.8002929688	5.011659862000927	1.574826996669317	68.01632878987061
520441.89453125	3.386182592652153	0.09529843362697374	68.01632878987061
520450.9887695313	3.177823207118894	-0.8408089576206725	68.01632878987061
520460.0830078125	3.444961720104423	-0.3994346024997738	68.01632878987061
520469.1772460938	3.502659023125056	-0.2064435078394346	68.01632878987061
520478.271484375	3.461044843321424	-0.3226076690343034	68.01632878987061
520487.3657226563	3.521627011493088	-0.1819189484595048	68.01632878987061
520496.4599609375	3.540667121489897	-0.2025278909569253	68.01632878987061
520505.5541992188	3.538719837512951	-0.1299465415263116	68.01632878987061
520514.6484375	3.592666815837243	-0.1304231761925725	68.01632878987061
520523.7426757813	3.60334081689606	-0.06696060093571964	68.01632878987061
520532.8369140625	3.600960803146458	-0.05980515067638641	68.01632878987061
520541.9311523438	3.586824963906403	-0.09287257556561178	68.01632878987061
520551.025390625	3.639401631283955	-0.02104290446267646	68.01632878987061
520560.1196289063	3.586897085535179	-0.05900203517660115	68.01632878987061
520569.2138671875	3.633920387496995	-0.02922786994017544	68.01632878987061
520578.3081054688	3.638391928481094	-0.01770386973718684	68.01632878987061
520587.40234375	3.689237676768026	0.03336030486718061	68.01632878987061
520596.4965820313	3.6571435519628	0.02048255424473787	68.01632878987061
520605.5908203125	3.710874165400763	0.03535531706775449	68.01632878987061
520614.6850585938	3.718879666194876	0.0715815748796339	68.01632878987061
520623.779296875	3.742030709031905	0.07131614016012362	68.01632878987061
520632.8735351563	3.80773351284665	0.117625366706438	68.01632878987061
520641.9677734375	3.805641985612152	0.1386272532712889	68.01632878987061
520651.0620117188	3.891466723855344	0.1626426251754926	68.01632878987061
520660.15625	4.0015243293672	0.2537984030954354	68.01632878987061
520669.2504882813	4.106966150637406	0.3507836322912119	68.01632878987061
520678.3447265625	4.109923137417214	0.341882817478707	68.01632878987061
520687.4389648438	4.179520509185852	0.3506541518825447	68.01632878987061
520696.533203125	4.185867212518121	0.3399810132093757	68.01632878987061
520705.6274414063	4.152619141652482	0.2765161657228935	68.01632878987061
520714.7216796875	4.126727476921973	0.2052623473131672	68.01632878987061
520723.8159179688	3.899832832793335	0.06130024773610358	68.01632878987061
520732.91015625	3.791866754515977	-0.1558290692799979	68.01632878987061
520742.0043945313	3.700416529228274	-0.2133366515145554	68.01632878987061
520751.0986328125	3.685054622299031	-0.2434956261051922	68.01632878987061
520760.1928710938	3.60384566829749	-0.2959209098603685	68.01632878987061
520769.287109375	3.622597291779195	-0.2862908595450332	68.01632878987061
520778.3813476563	3.587690423451713	-0.2933636847254008	68.01632878987061
520787.4755859375	3.583218882467614	-0.2754682619483231	68.01632878987061
520796.5698242188	3.525233092931878	-0.312289804584607	68.01632878987061
520805.6640625	3.554514474214849	-0.2881237448637665	68.01632878987061
520814.7583007813	3.543047135239498	-0.2587531634272466	68.01632878987061
520823.8525390625	3.50806814528324	-0.2673399169112962	68.01632878987061
520832.9467773438	3.549321716942992	-0.2466642845388046	68.01632878987061
520842.041015625	3.521266403349209	-0.208051000977889	68.01632878987061
520851.1352539063	3.547446554594822	-0.2023699746102883	68.01632878987061
520860.2294921875	3.516001524448577	-0.1883243883286709	68.01632878987061
520869.3237304688	3.553865379555867	-0.1589640320346712	68.01632878987061
520878.41796875	3.532373134180681	-0.1479776662829856	68.01632878987061
520887.5122070313	3.562303610122635	-0.1140108249321586	68.01632878987061
520896.6064453125	3.548239892511355	-0.109938095099542	68.01632878987061
520905.7006835938	3.525160971303102	-0.1022960806126757	68.01632878987061
520914.794921875	3.576727935877793	-0.09122962699642637	68.01632878987061
520923.8891601563	3.580622503831685	-0.02582105902965118	68.01632878987061
520932.9833984375	3.566342421334079	-0.04353365677512257	68.01632878987061
520942.0776367188	3.554802960729952	-0.05286495299243368	68.01632878987061
520951.171875	3.591152261632951	-0.01048876609627952	68.01632878987061
520960.2661132813	3.552062338836472	-0.02184866134333487	68.01632878987061
520969.3603515625	3.575501868188604	-0.01220828534504156	68.01632878987061
520978.4545898438	3.568866678341232	-0.003442826847376577	68.01632878987061
520987.548828125	3.573915192355537	0.01521398366918092	68.01632878987061
520996.6430664063	3.518381538198178	-0.02216093526632485	68.01632878987061
521005.7373046875	3.564323015728357	-0.008147512478085692	68.01632878987061
521014.8315429688	3.562880583152841	0.03075955380448197	68.01632878987061
521023.92578125	3.554298109328522	0.02273210813456239	68.01632878987061
521033.0200195313	3.584300706899251	0.03708851799481672	68.01632878987061
521042.1142578125	3.544994419216445	0.0469205214163041	68.01632878987061
521051.2084960938	3.573843070726761	0.03139212676361752	68.01632878987061
521060.302734375	3.556678123078123	0.05465032253743148	68.01632878987061
521069.3969726563	3.59562380261705	0.06906800285039813	68.01632878987061
521078.4912109375	3.548600500655234	0.05950433400078191	68.01632878987061
521087.5854492188	3.58105523360434	0.06233198319920082	68.01632878987061
521096.6796875	3.56237573175141	0.0655215628808162	68.01632878987061
521105.7739257813	3.553144163268109	0.06575061519352146	68.01632878987061
521114.8681640625	3.588988612769677	0.06435383286417565	68.01632878987061
521123.9624023438	3.560644812660792	0.09705089666240885	68.01632878987061
521133.056640625	3.53136343137782	0.03948204002679837	68.01632878987061
521142.1508789063	3.497177779338095	0.02202011786077139	68.01632878987061
521151.2451171875	3.51903063285716	0.0230639098447967	68.01632878987061
521160.3393554688	3.466381843850833	-0.003967575144920995	68.01632878987061
521169.43359375	3.53496951281661	0.02609112476444528	68.01632878987061
521178.5278320313	3.589565585799883	0.09537977540111313	68.01632878987061
521187.6220703125	3.588267396481919	0.1333452119814655	68.01632878987061
521196.7163085938	3.600888681517683	0.1022000123907597	68.01632878987061
521205.810546875	3.616971804734684	0.1455332613548191	68.01632878987061
521214.9047851563	3.564178772470805	0.1048905468159783	68.01632878987061
521223.9990234375	3.539441053800709	0.05964404066576138	68.01632878987061
521233.0932617188	3.563890285955702	0.07890978660961076	68.01632878987061
521242.1875	3.525160971303102	0.06955529636198315	68.01632878987061
521251.2817382813	3.559995718001809	0.06822854271346078	68.01632878987061
521260.3759765625	3.531868282779251	0.07758359840207141	68.01632878987061
521269.4702148438	3.558553285426293	0.07916352089701691	68.01632878987061
521278.564453125	3.512828172782442	0.06363217699574551	68.01632878987061
521287.6586914063	3.553865379555867	0.07228628893554173	68.01632878987061
521296.7529296875	3.538936202399278	0.08299158897925993	68.01632878987061
521305.8471679688	3.477849182826184	0.05023682014104791	68.01632878987061
521314.94140625	3.411713649238783	-0.03328070170171545	68.01632878987061
521324.0356445313	3.941302769339415	0.249245233045497	68.01632878987061
521333.1298828125	4.887538538877791	1.073229874111201	68.01632878987061
521342.2241210938	5.703955376619742	1.883386503481157	68.01632878987061
521351.318359375	5.509659708697762	1.915121525901728	68.01632878987061
521360.4125976563	3.724144545095509	0.5432550678990705	68.01632878987061
521369.5068359375	3.268984945891493	-0.7783247410381265	68.01632878987061
521378.6010742188	3.348318737544863	-0.5194088743802593	68.01632878987061
521387.6953125	3.488955913657655	-0.3317190716899496	68.01632878987061
521396.7895507813	3.408540297572649	-0.4119915504967743	68.01632878987061
521405.8837890625	3.460539991919994	-0.2856586288860528	68.01632878987061
521414.9780273438	3.465660627563075	-0.3436134433482146	68.01632878987061
521424.072265625	3.458520586314271	-0.2255391470261896	68.01632878987061
521433.1665039063	3.496023833277683	-0.2739246738003398	68.01632878987061
521442.2607421875	3.466165478964505	-0.1991569471420951	68.01632878987061
521451.3549804688	3.504966915245881	-0.2003007944119221	68.01632878987061
521460.44921875	3.48989349483174	-0.1852181782452291	68.01632878987061
521469.5434570313	3.511025132063047	-0.1264267113461652	68.01632878987061
521478.6376953125	3.477416453053529	-0.185509814874899	68.01632878987061
521487.7319335938	3.515640916304698	-0.09911272007956729	68.01632878987061
521496.826171875	3.510087550888962	-0.1315221180001478	68.01632878987061
521505.9204101563	3.503019631268935	-0.07778049817218659	68.01632878987061
521515.0146484375	3.544489567815014	-0.09141906616011196	68.01632878987061
521524.1088867188	3.563313312925496	-0.01880419998710891	68.01632878987061
521533.203125	3.567496367394492	-0.0168447767761597	68.01632878987061
521542.2973632813	3.568506070197353	-0.02598467357766785	68.01632878987061
521551.3916015625	3.62165971060511	0.03892969209269608	68.01632878987061
521560.4858398438	3.616394831704477	0.02906682516081632	68.01632878987061
521569.580078125	3.706042016272785	0.1033556977005459	68.01632878987061
521578.6743164063	3.741381614372923	0.1362701791524525	68.01632878987061
521587.7685546875	3.794463133151905	0.1803530745076941	68.01632878987061
521596.8627929688	3.906900752413363	0.2109759195267293	68.01632878987061
521605.95703125	3.963948960775013	0.3149079984721814	68.01632878987061
521615.0512695313	3.979887840734463	0.2917122216394382	68.01632878987061
521624.1455078125	3.979671475848136	0.2694285111290365	68.01632878987061
521633.2397460938	3.974190232061176	0.2566389336637355	68.01632878987061
521642.333984375	3.860887153254408	0.1454006924724972	68.01632878987061
521651.4282226563	3.791866754515977	0.05236868968461485	68.01632878987061
521660.5224609375	3.567207880879388	-0.1181638405527458	68.01632878987061
521669.6166992188	3.537421648194987	-0.229901409371328	68.01632878987061
521678.7109375	3.449144774573419	-0.253700005702143	68.01632878987061
521687.8051757813	3.45700603210998	-0.2638436266757313	68.01632878987061
521696.8994140625	3.415463973935125	-0.2705316767729971	68.01632878987061
521705.9936523438	3.381494686781727	-0.2681865799565939	68.01632878987061
521715.087890625	3.408107567799994	-0.2694290334517492	68.01632878987061
521724.1821289063	3.378177091858041	-0.2178468738531116	68.01632878987061
521733.2763671875	3.353150886672841	-0.2490779528328204	68.01632878987061
521742.3706054688	3.33209137107031	-0.2450013539562468	68.01632878987061
521751.46484375	3.35574726530877	-0.200991101576724	68.01632878987061
521760.5590820313	3.309445179634712	-0.2097717520316104	68.01632878987061
521769.6533203125	3.32935074917683	-0.1839360620871093	68.01632878987061
521778.7475585938	3.32473496493518	-0.1660451586155862	65.32261279819258
521787.841796875	3.3219943430417	-0.1305871073927388	65.32261279819258
521796.9360351563	3.303459084446321	-0.1437973087385874	65.32261279819258
521806.0302734375	3.340024750235647	-0.0955705122601009	65.32261279819258
521815.1245117188	3.322066464670475	-0.07101143227328499	65.32261279819258
521824.21875	3.319830694178426	-0.07384778598131184	65.32261279819258
521833.3129882813	3.357694549285716	-0.02885690931046912	65.32261279819258
521842.4072265625	3.310887612210228	-0.02109122911056222	65.32261279819258
521851.5014648438	3.345866602166487	-0.02161186300568437	65.32261279819258
521860.595703125	3.315431274823103	0.003770398779450758	65.32261279819258
521869.6899414063	3.34615508868159	0.0159125506484372	65.32261279819258
521878.7841796875	3.30194453024203	0.01356596504207216	65.32261279819258
521887.8784179688	3.308363355203075	0.01606980546953359	65.32261279819258
521896.97265625	3.302377260014684	0.01713386023765305	65.32261279819258
521906.0668945313	3.282471690472566	0.03554653564631017	65.32261279819258
521915.1611328125	3.299276029977325	0.02429157321417277	65.32261279819258
521924.2553710938	3.255786687825524	0.04394871423902523	65.32261279819258
521933.349609375	3.264152796763515	0.0207986153765034	65.32261279819258
521942.4438476563	3.249367862864478	0.03947282647062941	65.32261279819258
521951.5380859375	3.274971041079884	0.06556918937444327	65.32261279819258
521960.6323242188	3.242083578358123	0.05578788447757847	65.32261279819258
521969.7265625	3.263936431877188	0.07750645502609271	65.32261279819258
521978.8208007813	3.24590602468324	0.07338134437488511	65.32261279819258
521987.9150390625	3.231986550329513	0.08264471974662246	65.32261279819258
521997.0092773438	3.208474899348605	0.05399282645324473	65.32261279819258
522006.103515625	3.239775686237298	0.08756153577674315	65.32261279819258
522015.1977539063	3.21352341336291	0.0963597060707079	65.32261279819258
522024.2919921875	3.204291844879609	0.07746203694100082	65.32261279819258
522033.3862304688	3.241218118812814	0.1113637706355319	65.32261279819258
522042.48046875	3.201767587872456	0.1175046314357114	65.32261279819258
522051.5747070313	3.230616239382773	0.10947259615518	65.32261279819258
522060.6689453125	3.20753731817452	0.1270227158805357	65.32261279819258
