Time Stamp	ECG LL-RA	ECG LL-RA Filtered	Heart Rate
6475.89111328125	13.12332369367167	0.1097655123869893	-1
6484.9853515625	13.54523522201004	0.3343436629444704	-1
6494.07958984375	12.6427051595098	0.09937512992639375	-1
6503.173828125	13.54263884337412	-0.08939564854068929	-1
6512.26806640625	12.68496843397241	0.261819621063646	-1
6521.3623046875	12.98658108551277	-0.3188444556687232	-1
6530.45654296875	13.10644723253813	0.03901797396508813	-1
6539.55078125	12.25822475650606	-0.1342550201061575	-1
6548.64501953125	12.26659086544405	-1.055027948781382	-1
6557.7392578125	12.53762394638347	-0.1901612352837938	-1
6566.83349609375	12.74381968305346	-0.2073619148495509	-1
6575.927734375	11.95322238841324	-0.44114234422897	-1
6585.02197265625	12.83029351595563	-0.3823406631528351	-1
6594.1162109375	11.96670913299431	-0.2016581433287244	-1
6603.21044921875	12.22577002355695	-0.5764026319692206	-1
6612.3046875	11.68247779398892	-0.7214501945650182	-1
6621.39892578125	12.61032254818947	-0.1410070852486904	-1
6630.4931640625	11.82066283472333	-0.2979876399005991	-1
6639.58740234375	12.07835341433924	-0.3709217127381164	-1
6648.681640625	12.32962516899409	-0.2059415730680486	-1
6657.77587890625	11.57790143226402	-0.1159329233088856	-1
6666.8701171875	12.50091403733659	-0.423268649834522	-1
6675.96435546875	11.69769545766061	0.2033361472088274	-1
6685.05859375	12.23565068669923	-0.2779960796374853	-1
6694.15283203125	11.45868437989764	-0.2643718439322805	-1
6703.2470703125	12.38357214731838	0.08014875261293447	-1
6712.34130859375	11.65427823713759	-0.09164565903153116	-1
6721.435546875	11.9613721324649	0.09048553059899656	-1
6730.52978515625	12.18740131704823	-0.03231525461061935	-1
6739.6240234375	11.48746090977918	0.3250995560108781	-1
6748.71826171875	11.60682220540311	-0.6200322130528606	-1
6757.8125	11.92610465599354	0.2744819909690429	-1
6766.90673828125	12.13121856823189	0.4330839559181865	-1
6776.0009765625	11.43733637778001	-0.03557532614051984	-1
6785.09521484375	12.39597706746782	0.4247877806020797	-1
6794.189453125	11.65204246664554	0.3654585328387828	-1
6803.28369140625	11.96598791670655	0.3080941146966867	-1
6812.3779296875	11.44865947349781	-0.0420804035162828	-1
6821.47216796875	12.31642691092812	0.5828625209607614	-1
6830.56640625	11.53275329265038	0.3263548986764606	-1
6839.66064453125	11.87828801611519	0.2413387528005293	-1
6848.7548828125	12.07676673850617	0.7590018683237324	-1
6857.84912109375	11.44829886535393	1.002223561069347	-1
6866.943359375	12.30510381521032	0.7510857784435497	-1
6876.03759765625	11.55143279450331	1.167816978555825	-1
6885.1318359375	12.10013414622952	0.866033172988258	-1
6894.22607421875	11.44793825721005	0.778152190647042	-1
6903.3203125	12.36337809126116	1.230286989683183	-1
6912.41455078125	11.56556863374336	0.9226382367638797	-1
6921.5087890625	11.92343615572884	1.030786816797448	-1
6930.60302734375	12.11650575596163	0.97500121252008	-1
6939.697265625	11.44923644652801	1.181904833947503	-1
6948.79150390625	11.6345890324818	0.3619199927903415	-1
6957.8857421875	11.99476444658809	1.194563564062358	-1
6966.97998046875	12.15602840853076	1.349282642213075	-1
6976.07421875	11.53967696901285	0.8203619467301069	-1
6985.16845703125	12.47134416953852	1.295774514589486	-1
6994.2626953125	11.67367895527827	1.138189139789767	-1
7003.35693359375	12.01885307059921	1.007815656364886	-1
7012.451171875	11.53066176541588	0.7187102155671112	-1
7021.54541015625	12.47278660211403	1.298947440491326	-1
7030.6396484375	11.68514629425362	1.089364933176454	-1
7039.73388671875	12.09537411873032	0.9430619147363716	-1
7048.828125	12.30005530119602	1.219059844633267	-1
7057.92236328125	11.60530765119882	1.050545004666007	-1
7067.0166015625	12.51822322824278	0.849725357237009	-1
7076.11083984375	11.70836945871943	1.264949604279503	-1
7085.205078125	12.24726226893214	0.7777215120381738	-1
7094.29931640625	11.58727724400488	0.755961161935626	-1
7103.3935546875	12.54627854183657	1.110344038714324	-1
7112.48779296875	11.73519870462402	0.8367186540608405	-1
7121.58203125	12.11924637785511	0.8847515408080042	-1
7130.67626953125	12.31390265392097	0.8087934032918228	-1
7139.7705078125	11.6825499156177	1.024732653790845	-1
7148.86474609375	11.81575856396658	0.1210729753020671	-1
7157.958984375	12.21336510340752	0.9517641006075592	-1
7167.05322265625	12.38991885065065	1.074144094333707	-1
7176.1474609375	11.77565893836724	0.5584053507232911	-1
7185.24169921875	12.64133484856306	0.9299941667040351	-1
7194.3359375	11.84612176968119	0.737800136146004	-1
7203.43017578125	12.25880172953626	0.6258646396685088	-1
7212.5244140625	11.77811107374562	0.359072520300856	-1
7221.61865234375	12.61508257568867	0.8512507633643819	-1
7230.712890625	11.79570875116691	0.5299826922799993	-1
7239.80712890625	12.22887125359431	0.4151208783064758	-1
7248.9013671875	12.34873740061967	0.6280738255156408	-1
7257.99560546875	11.75200304412878	0.4619460824628567	-1
7267.08984375	12.6590767692419	0.3244857656369671	-1
7276.18408203125	11.82931743017643	0.6968058690082954	-1
7285.2783203125	12.42453723246303	0.2095659077290428	-1
7294.37255859375	11.80494031965021	0.2656818666706135	-1
7303.466796875	12.70350369256779	0.5620599763170107	-1
7312.56103515625	11.87554739422171	0.2401196107408862	-1
7321.6552734375	12.31577781626914	0.3195316986510334	-1
7330.74951171875	12.45057314045109	0.2367856045827343	-1
7339.84375	11.85694001399756	0.422327601401675	-1
7348.93798828125	11.93584107587827	-0.4802320307754812	-1
7358.0322265625	12.34873740061967	0.3277722686008356	-1
7367.12646484375	12.49348550957269	0.434771532372814	-1
7376.220703125	11.8746819346764	-0.07599627055866032	-1
7385.31494140625	12.75571975180146	0.2813624840091955	-1
7394.4091796875	11.94478415784647	0.1251666012739244	-1
7403.50341796875	12.38645701246941	-0.003802810195235346	-1
7412.59765625	11.96151637572245	-0.1996349263678046	-1
7421.69189453125	12.87197981738804	0.3598680671569009	-1
7430.7861328125	12.05484176335833	0.057893817482938	-1
7439.88037109375	12.51952141756075	-0.03933024221343119	-1
7448.974609375	12.64659972746369	0.1727736840749523	-1
7458.06884765625	12.04416776229951	0.01955360063962691	-1
7467.1630859375	12.93977414843728	-0.1571442099845606	-1
7476.25732421875	12.08066130646006	0.2137057657602822	-1
7485.3515625	12.61479408917357	-0.3372545348096728	-1
7494.44580078125	12.02822888234006	-0.2827081007440743	-1
7503.5400390625	12.91994070052394	0.05193072680121333	-1
7512.63427734375	12.08030069831618	-0.2941078001494719	-1
7521.728515625	12.52536326949159	-0.2017644039634079	-1
7530.82275390625	12.64292152439613	-0.284530590482103	-1
7539.9169921875	12.03702772105071	-0.1073744111759856	-1
7549.01123046875	12.08570982047437	-1.021281310491686	-1
7558.10546875	12.59070546516245	-0.1644675699312095	-1
7567.19970703125	12.61392862962826	-0.05302041957386802	-1
7576.2939453125	12.03298890983926	-0.6277907676520633	-1
7585.38818359375	12.9665312727131	-0.1760956689776778	-1
7594.482421875	12.11881364808245	-0.3048515192263126	-1
7603.57666015625	12.5839981536863	-0.4764829379572123	-1
7612.6708984375	12.59625883057819	-0.3652950513506457	-1
7621.76513671875	12.9343650262791	0.1206904476017456	-1
7630.859375	12.13273312243618	-0.6320817049690981	-1
7639.95361328125	12.61133225099233	-0.5233078684584545	-1
7649.0478515625	12.61948199504399	-0.329832701368485	-1
7658.14208984375	12.07813704945291	-0.6080594083543348	-1
7667.236328125	13.02437281899128	-0.5299300502149651	-1
7676.33056640625	12.14686896167624	-0.2476517488586151	-1
7685.4248046875	12.69203635359244	-0.7295697779147697	-1
7694.51904296875	12.15213384057687	-0.6284707393597229	-1
7703.61328125	13.03764319868603	-0.2758073225460585	-1
7712.70751953125	12.16691877447591	-0.5937326165398928	-1
7721.8017578125	12.72030803207255	-0.4958085981524694	-1
7730.89599609375	12.7296838438134	-0.4866728635603749	-1
7739.990234375	12.16879393682408	-0.4232427665426654	-1
7749.08447265625	12.20096018325808	-1.228511034703176	-1
7758.1787109375	12.68100174438974	-0.4064984298641057	-1
7767.27294921875	12.67364533825461	-0.3245638420346679	-1
7776.3671875	12.23168399711657	-0.77465884095337	-1
7785.46142578125	13.07536281053577	-0.3175809901627807	-1
7794.5556640625	12.23586705158556	-0.4710051667507061	-1
7803.64990234375	12.88611565662809	-0.5419078238776633	-1
7812.744140625	12.82784138057725	-0.3013644165805124	-1
7821.83837890625	13.13161768098088	0.02620947076406652	-1
7830.9326171875	12.27070179828427	-0.7075050044678757	-1
7840.02685546875	12.78781387660669	-0.6017106317472516	-1
7849.12109375	12.82755289406215	-0.3690866226433449	-1
7858.21533203125	12.33892885910617	-0.5586030853753631	-1
7867.3095703125	13.13789226268438	-0.5812721098593287	-1
7876.40380859375	12.28310671843371	-0.3255084115483952	-1
7885.498046875	12.84724209871794	-0.774519027932242	-1
7894.59228515625	12.35652653652746	-0.5958945926652324	-1
7903.6865234375	13.20352294487035	-0.2665241997603366	-1
7912.78076171875	12.36042110448135	-0.5646160951018715	-1
7921.875	12.87457619602397	-0.467237922574637	-1
7930.96923828125	12.84457359845324	-0.4958633994550821	-1
7940.0634765625	12.36135868565544	-0.3903134637753752	-1
7949.15771484375	12.37145571368405	-1.14595656031491	-1
7958.251953125	12.94056748635381	-0.2948326077777934	-1
7967.34619140625	12.88323079147706	-0.1862580502574586	-1
7976.4404296875	12.39590494583904	-0.6849738381590526	-1
7985.53466796875	13.23532858316047	-0.2680710660745369	-1
7994.62890625	12.40044860845192	-0.3617886464944791	-1
8003.72314453125	12.98953807229258	-0.4943335487121456	-1
8012.8173828125	12.9525396767306	-0.2422858903649107	-1
8021.91162109375	13.3082435498528	0.141586298676282	-1
8031.005859375	12.42936938159101	-0.5679209848977895	-1
8040.10009765625	12.96970462437923	-0.4615387025174759	-1
8049.1943359375	12.95427059582121	-0.2389077127791728	-1
8058.28857421875	12.45194345139783	-0.4520551201331724	-1
8067.3828125	13.25141170637747	-0.4804888067032691	-1
8076.47705078125	12.37434057883508	-0.1966450763539975	-1
8085.5712890625	12.94366871639117	-0.6766782540307414	-1
8094.66552734375	12.43896155821819	-0.4594620665792518	-1
8103.759765625	13.26396086978446	-0.158310537035115	-1
8112.85400390625	12.40463166292091	-0.4580289493067263	-1
8121.9482421875	12.99876964077588	-0.3038828753160387	-1
8131.04248046875	12.91186307810105	-0.3142911232871054	-1
8140.13671875	12.47293084537159	-0.2164694695502635	-1
8149.23095703125	12.49002367139145	-0.9345092880830122	-1
8158.3251953125	13.03576803633786	-0.07233997096574847	-1
8167.41943359375	12.95427059582121	-0.01832426387142305	-1
8176.513671875	12.50351041597252	-0.4637393589340954	-1
8185.60791015625	13.35923354139728	-0.03093245091214325	-1
8194.7021484375	12.47458964283343	-0.1323413030263873	-1
8203.79638671875	13.07355976981637	-0.2932291496604267	-1
8212.890625	12.99927449217731	-0.03595420815628161	-1
8221.98486328125	13.37358574552366	0.3460936448264034	-1
8231.0791015625	12.50899165975948	-0.3456506911272442	-1
8240.17333984375	13.09469140704768	-0.181959405858425	-1
8249.267578125	13.02285826478699	0.009192590273973303	-1
8258.36181640625	12.53459483797489	-0.2118113062965946	-1
8267.4560546875	13.35699777090523	-0.2210444828125343	-1
8276.55029296875	12.50199586176823	0.1031483290349261	-1
8285.64453125	12.98686957202787	-0.4300298328024469	-1
8294.73876953125	12.54613429857901	-0.2222448358873165	-1
8303.8330078125	13.43236487297593	0.1738725227215015	-1
8312.92724609375	12.58349330228487	-0.1073536184911149	-1
8322.021484375	13.15217234518199	0.01890192599407362	-1
8331.11572265625	13.08098829758028	0.001806565594254739	-1
8340.2099609375	12.64234455136592	0.1094342733712292	-1
8349.30419921875	12.55096644770699	-0.6786528481517136	-1
8358.3984375	13.1828240374117	0.1633898026536979	-1
8367.49267578125	13.08012283803497	0.2861863862323257	-1
8376.5869140625	12.65914889087068	-0.1844344166862338	-1
8385.68115234375	13.45277529391948	0.2249740003427814	-1
8394.775390625	12.57786781524036	0.1050490668399277	-1
8403.86962890625	13.18332888881313	-0.0617553287505051	-1
8412.9638671875	13.06331849853021	0.2001827557116165	-1
8422.05810546875	13.44138007657291	0.52358007793397	-1
8431.15234375	12.56798715209808	-0.1339427194858441	-1
8440.24658203125	13.16897668468674	0.0186453857204697	-1
8449.3408203125	12.99905812729098	0.1656284252629283	-1
8458.43505859375	12.68193932556383	-0.01054371153232633	-1
8467.529296875	13.45522742929786	0.06281232375714402	-1
8476.62353515625	12.55709678615293	0.3076358598189637	-1
8485.7177734375	13.03432560376234	-0.2774598985812131	-1
8494.81201171875	12.68129023090485	0.03556753952571226	-1
8503.90625	13.46027594331216	0.3677359819941376	-1
8513.00048828125	12.5449803525186	0.002760970319295078	-1
8522.0947265625	13.22133698717797	0.1531059767608756	-1
8531.18896484375	13.0514184297822	0.1829135898137457	-1
8540.283203125	12.75752279252086	0.2623044449174979	-1
8549.37744140625	12.61948199504399	-0.4336666710920113	-1
8558.4716796875	13.28480402050066	0.3757122542772376	-1
8567.56591796875	13.07514644564944	0.4236127676398644	-1
8576.66015625	12.73985299347079	-0.007715440650494759	-1
8585.75439453125	13.49619251444251	0.3827920499456728	-1
8594.8486328125	12.63700755083651	0.2911263549842647	-1
8603.94287109375	13.30954173917076	0.1143523288383456	-1
8613.037109375	13.15931238643079	0.4430738645157685	-1
8622.13134765625	13.5641310887493	0.7002505091653836	-1
8631.2255859375	12.68972846147161	0.07499327264641616	-1
8640.31982421875	13.32656244356185	0.2428473103624119	-1
8649.4140625	13.14041651969153	0.3560291255835172	-1
8658.50830078125	12.79567513414325	0.1876296793654213	-1
8667.6025390625	13.51487201629544	0.1542670636533902	-1
8676.69677734375	12.64652760583492	0.4370210990349202	-1
8685.791015625	13.11192847632509	-0.1729792451517354	-1
8694.88525390625	12.84810755826325	0.1937704378244176	-1
8703.9794921875	13.53506607235266	0.511304930438734	-1
8713.07373046875	12.67703505480707	0.09294009424702357	-1
8722.16796875	13.34668437799029	0.2985989750960594	-1
8731.26220703125	13.1306800998068	0.2694046972265928	-1
8740.3564453125	12.82329771796438	0.3064496688308992	-1
8749.45068359375	12.70263823302248	-0.3720344258000125	-1
8758.544921875	13.39652042347436	0.4525404759306984	-1
8767.63916015625	13.15173961540933	0.4877318094327834	-1
8776.7333984375	12.89433752230853	0.06897650509101826	-1
8785.82763671875	13.58742637484388	0.4684349359371586	-1
8794.921875	12.74728152123469	0.3291232338950286	-1
8804.01611328125	13.4268115075602	0.1647777000855671	-1
8813.1103515625	13.14315714158501	0.4360997364835345	-1
8822.20458984375	13.62687690578424	0.6194793899746203	-1
8831.298828125	12.77584168622991	0.1196134518884068	-1
8840.39306640625	13.4860954864139	0.2926364660447709	-1
8849.4873046875	13.17546763127657	0.3679994788336347	-1
8858.58154296875	12.91669522722903	0.1728367119401248	-1
8867.67578125	13.62002535105054	0.1761616521010109	-1
8876.77001953125	12.78752539009159	0.4813833699297216	-1
8885.8642578125	13.17791976665494	-0.2038090009395613	-1
8894.95849609375	12.93696140491502	0.1738490058693084	-1
8904.052734375	13.54920191159271	0.429691630585799	-1
8913.14697265625	12.77036044244295	0.03754853320414033	-1
8922.2412109375	13.42659514267387	0.2746450006302978	-1
8931.33544921875	13.18772830816845	0.2137269563739982	-1
8940.4296875	12.97287797604537	0.2800683214001695	-1
8949.52392578125	12.83361111087932	-0.3449046919763951	-1
8958.6181640625	13.48970156785268	0.4141291818225211	-1
8967.71240234375	13.15880753502936	0.3718171145445386	-1
8976.806640625	13.02704131925599	0.00182488557062245	-1
8985.90087890625	13.61043317442336	0.4040083317894027	-1
8994.9951171875	12.86714766826006	0.2428684853604983	-1
9004.08935546875	13.47946029656652	0.09852740733263543	-1
9013.18359375	13.1425801685548	0.3093686605506152	-1
9022.27783203125	13.5370133563296	0.3857538096435605	-1
9031.3720703125	12.79423270156774	-0.04177830172744707	-1
9040.46630859375	13.4527031722907	0.1528873431725278	-1
9049.560546875	13.11055816537835	0.1777121700506906	-1
9058.65478515625	13.09541262333544	0.1023868024350531	-1
9067.7490234375	13.51573747584075	0.1212325083725041	-1
9076.84326171875	12.96227609661533	0.3265802337737038	-1
9085.9375	13.17200579309533	-0.2058497062366292	-1
9095.03173828125	13.19090165983458	0.1534997903278378	-1
9104.1259765625	13.60725982275722	0.4255593051433297	-1
9113.22021484375	12.91655098397148	0.007346029356768591	-1
9122.314453125	13.55785650704581	0.1926148320201694	-1
9131.40869140625	13.16349544089978	0.1645176411750377	-1
9140.5029296875	13.22588064979084	0.1360795089067573	-1
9149.59716796875	12.8324571648189	-0.2972383061400545	-1
9158.69140625	13.7595807027317	0.2966613346368998	-1
9167.78564453125	13.2108072293767	0.371138595206601	-1
9176.8798828125	13.10406721878853	-0.118980449175478	-1
9185.97412109375	13.81857619507029	0.2716373946710693	-1
9195.068359375	12.8300771510693	0.2561452126961753	-1
9204.16259765625	13.71450468474682	-0.1635256048979731	-1
9213.2568359375	13.19811382271216	0.3910495607227787	-1
9222.35107421875	13.75691220246699	0.228501364894155	-1
9231.4453125	12.78694841706138	-0.1404410695641	-1
9240.53955078125	13.70375856205923	0.08042299309916993	-1
9249.6337890625	13.19796957945461	0.07755703784885144	-1
9258.72802734375	13.13003100514782	0.003469177290595621	-1
9267.822265625	13.77364442034297	-0.06083785645334305	-1
9276.91650390625	12.8366402192879	0.3436966397007265	-1
9286.0107421875	13.22826066354044	-0.6035101193307579	-1
9295.10498046875	13.1923440924101	0.109287561025205	-1
9304.19921875	13.78770813795425	0.3514797586584644	-1
9313.29345703125	12.89924179306529	-0.1198431073978309	-1
9322.3876953125	13.73058780796383	0.1768672241644311	-1
9331.48193359375	13.18881013260009	0.02946595429478936	-1
9340.576171875	13.1810209966923	0.05661114036536255	-1
9349.67041015625	12.93508624256685	-0.5151476363163881	-1
9358.7646484375	13.74753639072614	0.3367771164983763	-1
9367.85888671875	13.24456015164377	0.1704454666026643	-1
9376.953125	13.23201098823678	-0.1101290409158262	-1
9386.04736328125	13.65449948960537	0.1760155823624187	-1
9395.1416015625	12.94893359529181	0.03288798222267203	-1
9404.23583984375	13.60899074184784	-0.1003991670962699	-1
9413.330078125	13.16010572434732	0.1295913522104809	-1
9422.42431640625	13.60033614639475	0.1339500025296821	-1
9431.5185546875	13.01348245304614	-0.1492582616391215	-1
9440.61279296875	13.64007516385021	0.1621632029266432	-1
9449.70703125	13.13154555935211	-0.04939042049873392	-1
9458.80126953125	13.20734539119546	-0.05254808264951746	-1
9467.8955078125	13.56362623734787	-0.04939829754063732	-1
9476.98974609375	12.95975183960817	0.1329538552184527	-1
9486.083984375	13.1947241061597	-0.4373104297110294	-1
9495.17822265625	13.29836288671051	0.05065820167774215	-1
9504.2724609375	13.60509617389395	0.287812364220025	-1
9513.36669921875	13.00980424997857	-0.1554855313386748	-1
9522.4609375	13.67382808611728	0.1637660830084805	-1
9531.55517578125	13.13933469525989	0.02011706595573103	-1
9540.6494140625	13.25898447739893	-0.03224237171532365	-1
9549.74365234375	12.90623759105654	-0.372533846595031	-1
9558.837890625	13.74335333625714	0.1988992924005579	-1
9567.93212890625	13.22472670373043	0.2104061167458019	-1
9577.0263671875	13.25905659902771	-0.1147273210519798	-1
9586.12060546875	13.73743936269753	0.2026428696900177	-1
9595.21484375	13.00093328963915	0.157174204761578	-1
9604.30908203125	13.81857619507029	-0.06068245115571291	-1
9613.4033203125	13.31906179416916	0.384806427272284	-1
9622.49755859375	13.79730031458143	0.1940417476160948	-1
9631.591796875	13.11827517965736	-0.01475988885212293	-1
9640.68603515625	13.81742224900988	0.216482985416478	-1
9649.7802734375	13.30427686027013	0.05541281806563207	-1
9658.87451171875	13.36666206916119	0.05735030093458371	-1
9667.96875	13.79261240871101	0.00411335440068783	-1
9677.06298828125	13.07976222989109	0.2613462031052156	-1
9686.1572265625	13.26799968099591	-0.5268477482853752	-1
9695.25146484375	13.23013582588861	-0.03423060255702204	-1
9704.345703125	13.75669583758066	0.1965230567185332	-1
9713.43994140625	13.02199280524168	-0.1368287487570517	-1
9722.5341796875	13.7375114843263	0.07519855612362458	-1
9731.62841796875	13.22487094698798	-0.02649110789906094	-1
9740.72265625	13.2882658586819	-0.02958792909070965	-1
9749.81689453125	12.97525798979497	-0.4971548034052357	-1
9758.9111328125	13.76361951394314	0.2015025030349458	-1
9768.00537109375	13.21744241922407	0.06745918225059099	-1
9777.099609375	13.23439100198639	-0.2130604093085523	-1
9786.19384765625	13.75496491849004	0.1161628082189393	-1
9795.2880859375	12.96970462437923	0.0552214937633525	-1
9804.38232421875	13.75669583758066	-0.1440431565898063	-1
9813.4765625	13.23280432615332	0.2674483464933664	-1
9822.57080078125	13.77782747481197	0.1678432171990696	-1
9831.6650390625	12.99970722194996	-0.0978028484719964	-1
9840.75927734375	13.77797171806952	0.1623174159938626	-1
9849.853515625	13.25040200357461	0.04067249413892167	-1
9858.94775390625	13.30939749591321	0.04885283866669371	-1
9868.0419921875	13.7601576757619	-0.00454820676994605	-1
9877.13623046875	13.00251996547222	0.2752996664148282	-1
9886.23046875	13.31646541553324	-0.4843764368159284	-1
9895.32470703125	13.37632636741714	0.1541283893479983	-1
9904.4189453125	13.78886208401467	0.3633016834988206	-1
9913.51318359375	13.07723797288394	-0.08673601019631128	-1
9922.607421875	13.84504483283101	0.251294822190591	-1
9931.70166015625	13.31552783435915	0.1164385795903406	-1
9940.7958984375	13.35122804060317	0.09229103846389923	-1
9949.89013671875	13.04889417277505	-0.3835421895817507	-1
9958.984375	13.85644005017758	0.3295363269467159	-1
9968.07861328125	13.38325004377962	0.2516488927965609	-1
9977.1728515625	13.42572968312856	0.00228602476407952	-1
9986.26708984375	13.84367452188427	0.2843628245235824	-1
9995.361328125	13.08632529810969	0.144666746345199	-1
10004.45556640625	13.88435112051381	-0.0107262871068845	-1
10013.5498046875	13.34416012098314	0.3330436901222715	-1
10022.64404296875	13.85305033362512	0.2081279500129321	-1
10031.73828125	13.09288836632828	-0.05915201062005902	-1
10040.83251953125	13.86934982172845	0.193143609708019	-1
10049.9267578125	13.35288683806501	0.09042887154198892	-1
10059.02099609375	13.42320542612141	0.08264597790002527	-1
10068.115234375	13.84129450813467	0.03342037684281524	-1
10077.20947265625	13.13616134359376	0.295970841875312	-1
10086.3037109375	13.34019343140047	-0.4742771141509424	-1
10095.39794921875	13.4131083980928	0.08230264192663517	-1
10104.4921875	13.83090899359095	0.3268177274930991	-1
10113.58642578125	13.11106301677978	-0.1105865245294807	-1
10122.6806640625	13.94947695129835	0.2235939838127442	-1
10131.77490234375	13.36911420453956	0.1473017082817187	-1
10140.869140625	13.41721933093302	0.0400679768160665	-1
10149.96337890625	13.08921016326072	-0.4023586373274434	-1
10159.0576171875	13.89120267524751	0.2815319889025653	-1
10168.15185546875	13.28271249326617	0.1212111848417425	-1
10177.24609375	13.40243439703398	-0.1362030995499969	-1
10186.34033203125	13.85781036112432	0.2230744063892954	-1
10195.4345703125	13.07767070265659	0.108038412482197	-1
10204.52880859375	13.9171664616068	-0.08664369768591651	-1
10213.623046875	13.33153883594738	0.3147449162392949	-1
10222.71728515625	13.86401282119904	0.1529302140174421	-1
10231.8115234375	13.11445273333225	-0.02795159564736323	-1
10240.90576171875	13.92300831353764	0.2362860675029018	-1
10250	13.34473709401335	0.09935440276527087	-1
10259.09423828125	13.46352141660707	0.1147236045834012	-1
10268.1884765625	13.8262932093493	0.04220246659159166	-1
10277.28271484375	13.12837220768597	0.3087615443882824	-1
10286.376953125	13.36889783965324	-0.4593108092885415	-1
10295.47119140625	13.45291953717703	0.1659835596586118	-1
10304.5654296875	13.83826539972608	0.3585297557504681	-1
10313.65966796875	13.08906592000317	-0.09151643027831841	-1
10322.75390625	13.89790998672366	0.218052995210121	-1
10331.84814453125	13.32093695651733	0.1294998467101166	-1
10340.9423828125	13.45840078096399	0.1033746809626651	-1
10350.03662109375	13.13471891101824	-0.3028868831481412	-1
10359.130859375	14.03169560810275	0.4337847385226958	-1
10368.22509765625	13.42940788619612	0.3121469315079392	-1
10377.3193359375	13.55403406072069	0.0528887110266054	-1
10386.41357421875	13.91687797509169	0.3352428662950094	-1
10395.5078125	13.33961645837026	0.2915140253843477	-1
10404.60205078125	13.86596010517599	0.05013386811401166	-1
10413.6962890625	13.48948520296636	0.3222349627275567	-1
10422.79052734375	13.77371654197175	0.2069639681156574	-1
10431.884765625	13.35137228386072	-0.01551219388417106	-1
10440.97900390625	13.81114766730638	0.2771177939536078	-1
10450.0732421875	13.45544379418418	0.03992857873961515	-1
10459.16748046875	13.56946808927871	0.1705701630910338	-1
10468.26171875	13.77025470379051	0.07973250052010575	-1
10477.35595703125	13.34589104007376	0.2334554704636854	-1
10486.4501953125	13.48241728334633	-0.2223786162297671	-1
10495.54443359375	13.57530994120955	0.1360934555314025	-1
10504.638671875	13.77054319030562	0.3033071492215145	-1
10513.73291015625	13.32115332140366	-0.05976182561450227	-1
10522.8271484375	13.83768842669588	0.2061593181136857	-1
10531.92138671875	13.46287232194809	0.1064891970349053	-1
10541.015625	13.55425042560702	0.09582485860023714	-1
10550.10986328125	13.31653753716201	-0.1759983547363062	-1
10559.2041015625	13.80718097772372	0.2157813900296871	-1
10568.29833984375	13.4199599528265	0.1126946722797526	-1
10577.392578125	13.52886361227794	-0.02909171656304137	-1
10586.48681640625	13.70101794016575	0.1534473538136572	-1
10595.5810546875	13.30535868470176	0.05427311865090531	-1
10604.67529296875	13.81771073552498	0.01994937096803751	-1
10613.76953125	13.49063914902677	0.2529092563618747	-1
10622.86376953125	13.69185849331123	0.08695485918035267	-1
10631.9580078125	13.36413781215403	-0.04055986601851865	-1
10641.05224609375	13.83011565567442	0.2082976870816836	-1
10650.146484375	13.44642859058721	0.0667457897313349	-1
10659.24072265625	13.5704056704528	0.09092902730595889	-1
10668.3349609375	13.7303714430775	0.1269828502144323	-1
10677.42919921875	13.3454583103011	0.2025222462453765	-1
10686.5234375	13.42522483172713	-0.2251308741123117	-1
10695.61767578125	13.54458612735106	0.1351025520190414	-1
10704.7119140625	13.76506194651866	0.2874467277758569	-1
10713.80615234375	13.36637358264608	0.05294491151341341	-1
10722.900390625	13.84648726540652	0.2231633220145575	-1
10731.99462890625	13.50686651550132	0.205138850484712	-1
10741.0888671875	13.60004765987964	0.149925106637007	-1
10750.18310546875	13.39471738275497	-0.0594076729614737	-1
10759.27734375	13.89653967577692	0.3223873221029126	-1
10768.37158203125	13.49893313633599	0.2198182826359488	-1
10777.4658203125	13.61908776987645	0.08007667614070339	-1
10786.56005859375	13.75669583758066	0.22596505606619	-1
10795.654296875	13.36687843404751	0.137758358997452	-1
10804.74853515625	13.83177445313626	0.04619540015241058	-1
10813.8427734375	13.42248420983365	0.2480646797235459	-1
10822.93701171875	13.76109525693599	0.07817286636739168	-1
10832.03125	13.34149162071843	0.04638714146897531	-1
10841.12548828125	13.77789959644075	0.1555849304018349	-1
10850.2197265625	13.43142729180185	0.05718374031744091	-1
10859.31396484375	13.53117150439877	0.09717268858017455	-1
10868.408203125	13.7214283611093	0.04397283680656092	-1
10877.50244140625	13.4068338163893	0.2528061243205271	-1
10886.5966796875	13.42753272384795	-0.2240784557384113	-1
10895.69091796875	13.56939596764993	0.1179856988375273	-1
10904.78515625	13.71991380690501	0.2540503843394029	-1
10913.87939453125	13.35642079787502	-0.01166111280868697	-1
10922.9736328125	13.83213506128014	0.1963412181074618	-1
10932.06787109375	13.47203176880262	0.1555505370021479	-1
10941.162109375	13.59694642984229	0.1002881293149285	-1
10950.25634765625	13.33334187666677	-0.1049282739408302	-1
10959.3505859375	13.80487308560289	0.2084372672576745	-1
10968.44482421875	13.43835096816432	0.1261573251161557	-1
10977.5390625	13.56326562920399	0.02648523111388615	-1
10986.63330078125	13.75171944519513	0.1773747380707287	-1
10995.7275390625	13.47765725584713	0.2017179570597772	-1
11004.82177734375	13.92625378683255	0.1398498587280257	-1
11013.916015625	13.53369576140592	0.3087086823776241	-1
11023.01025390625	13.82636533097808	0.1243923153561018	-1
11032.1044921875	13.42587392638611	0.06410392627907431	-1
11041.19873046875	13.94615935637467	0.2284720518886912	-1
11050.29296875	13.51919931402198	0.1309161508333394	-1
11059.38720703125	13.64721520509901	0.1183668135702002	-1
11068.4814453125	13.78828511098446	0.1157960578179018	-1
11077.57568359375	13.46395414637973	0.2648897025711117	-1
11086.669921875	13.50181800148702	-0.2127098487908784	-1
11095.76416015625	13.6204580808232	0.1608010914948989	-1
11104.8583984375	13.76513406814743	0.2321446901771881	-1
11113.95263671875	13.44498615801169	0.03084733002937321	-1
11123.046875	13.91846465092476	0.2382851819716014	-1
11132.14111328125	13.5432879380331	0.1845630727917534	-1
11141.2353515625	13.62024171593687	0.09616419713973085	-1
11150.32958984375	13.45277529391948	-0.08930769614198118	-1
11159.423828125	13.94716905917753	0.3171644362778893	-1
11168.51806640625	13.55309647954661	0.1884216176737482	-1
11177.6123046875	13.65695162498374	0.06184540130130809	-1
11186.70654296875	13.75006064773329	0.1565351793897729	-1
11195.80078125	13.38678400358963	0.07411701686177311	-1
11204.89501953125	13.88240383653687	0.0206852353866134	-1
11213.9892578125	13.46741598456097	0.2342741445279521	-1
11223.08349609375	13.71140345470947	-0.0009816832386687763	-1
11232.177734375	13.36074809560157	-0.04431038983784411	-1
11241.27197265625	13.85982976673004	0.1698729475723723	-1
11250.3662109375	13.47563785024141	0.06442145184188486	-1
11259.46044921875	13.59312398351717	0.07121002681005836	-1
11268.5546875	13.74155029553775	0.0291809001380674	-1
11277.64892578125	13.38224034097676	0.1745631958545755	-1
11286.7431640625	13.49655312258639	-0.266622583180273	-1
11295.83740234375	13.63452179843447	0.1527890101015861	-1
11304.931640625	13.77025470379051	0.2334842930575821	-1
11314.02587890625	13.44267826589087	-0.006300311988499154	-1
11323.1201171875	13.88730810729362	0.208957438933818	-1
11332.21435546875	13.51689142190116	0.1221940301697093	-1
11341.30859375	13.67404445100361	0.09749642831885538	-1
11350.40283203125	13.42673938593142	-0.08541371461996988	-1
11359.4970703125	13.89199601316405	0.2230257408602634	-1
11368.59130859375	13.49222582485984	0.1145777705245612	-1
11377.685546875	13.62110717548218	-0.003169605462910785	-1
11386.77978515625	13.74998852610452	0.1266780486508284	-1
11395.8740234375	13.44296675240597	0.09580635689841134	-1
11404.96826171875	13.91630100206149	0.04568265038306912	-1
11414.0625	13.50744348853153	0.2384790438273225	-1
11423.15673828125	13.78035173181912	0.02068387582627289	-1
11432.2509765625	13.46287232194809	0.01255922346260518	-1
11441.34521484375	13.90807913638105	0.1935835869074068	-1
11450.439453125	13.50239497451723	0.03883000743804687	-1
11459.53369140625	13.66127892271029	0.06087731214012285	-1
11468.6279296875	13.78604934049241	0.03672065515578321	-1
11477.72216796875	13.47693603955937	0.1700472249077781	-1
11486.81640625	13.5161702056134	-0.2444390490273432	-1
11495.91064453125	13.67072685607992	0.1542334254283299	-1
11505.0048828125	13.80739734261004	0.2471782390690077	-1
11514.09912109375	13.4860954864139	0.02399758970020448	-1
11523.193359375	13.91002642035799	0.2101476284847438	-1
11532.28759765625	13.53420061280735	0.1302881753480511	-1
11541.3818359375	13.73361691637241	0.113352551910243	-1
11550.47607421875	13.49871677144966	-0.0224164805439707	-1
11559.5703125	13.96931039921169	0.2757650995355069	-1
11568.66455078125	13.53585941026919	0.1497349205090375	-1
11577.7587890625	13.72864052398688	0.05151739866117749	-1
11586.85302734375	13.83941934578649	0.2050388360911312	-1
11595.947265625	13.44981830713967	0.1130115956833818	-1
11605.04150390625	13.87584076831827	-0.02508351848897683	-1
11614.1357421875	13.49193733834473	0.2026305211524004	-1
11623.22998046875	13.70455189997577	-0.03944497473249896	-1
11632.32421875	13.48068636425571	-0.02395771711016729	-1
11641.41845703125	13.90627609566165	0.222333688571016	-1
11650.5126953125	13.454217726495	0.009188455156168731	-1
11659.60693359375	13.70217188622616	0.05802547007859527	-1
11668.701171875	13.75907585133026	0.08166098452287854	-1
11677.79541015625	13.45832865933522	0.138438285445038	-1
11686.8896484375	13.50859743459194	-0.2587040524689774	-1
11695.98388671875	13.71313437380008	0.1482960835217838	-1
11705.078125	13.79369423314264	0.2241233141957136	-1
11714.17236328125	13.51927143565076	0.009282700084418345	-1
11723.2666015625	13.88781295869505	0.1740929922005436	-1
11732.36083984375	13.49172097345841	0.07072295703865461	-1
11741.455078125	13.71782227967051	0.03897378323159682	-1
11750.54931640625	13.48739367573186	-0.04108016444352386	-1
11759.6435546875	13.90944944732779	0.2009375677178336	-1
11768.73779296875	13.53751820773104	0.09316321524766415	-1
11777.83203125	13.7535946075433	0.06227590802188412	-1
11786.92626953125	13.78316447534138	0.1539468609231404	-1
11796.0205078125	13.48991793273901	0.07473665072824907	-1
11805.11474609375	13.9880620226934	0.04636148882223992	-1
11814.208984375	13.55107707394088	0.2657075696532925	-1
11823.30322265625	13.80407974768636	-0.02883602511026018	-1
11832.3974609375	13.48515790523981	-0.0007806524532134665	-1
11841.49169921875	13.97652256208927	0.1827152396607548	-1
11850.5859375	13.54400915432086	0.0520130338874373	-1
11859.68017578125	13.76571104117764	0.08167952973216856	-1
11868.7744140625	13.8328562775679	0.05752375876013169	-1
11877.86865234375	13.58295483385978	0.1934416977540358	-1
11886.962890625	13.57552630609588	-0.2310756623551804	-1
11896.05712890625	13.79217967893835	0.1909339653302088	-1
11905.1513671875	13.81475374874517	0.2279690902095536	-1
11914.24560546875	13.49402886557923	-0.03856382783585462	-1
11923.33984375	13.94204842353445	0.1545234070613645	-1
11932.43408203125	13.5683141432183	0.1264199528400441	-1
11941.5283203125	13.78179416439464	0.07866798166874242	-1
11950.62255859375	13.49749070376047	-0.04968049938146746	-1
11959.716796875	13.94789027546528	0.1992852206858569	-1
11968.81103515625	13.51133805648542	0.06779737372310267	-1
11977.9052734375	13.71277376565621	0.004876122629862239	-1
11986.99951171875	13.77963051553136	0.1110736749818798	-1
11996.09375	13.5432879380331	0.1137798373589288	-1
12005.18798828125	13.97125768318864	0.05321367438789162	-1
12014.2822265625	13.51869446262055	0.2248695403354061	-1
12023.37646484375	13.75929221621659	-0.06393022412975707	-1
12032.470703125	13.5048471098956	-0.0007533586860307071	-1
12041.56494140625	13.98676383337543	0.2223259054484894	-1
12050.6591796875	13.55836135844724	0.07315498145753532	-1
12059.75341796875	13.75864312155761	0.1014065579839724	-1
12068.84765625	13.79095361124916	0.04981971130139831	-1
12077.94189453125	13.53860003216267	0.1682461474907094	-1
12087.0361328125	13.53831154564757	-0.2593346177931628	-1
12096.13037109375	13.75489279686127	0.1362630999203924	-1
12105.224609375	13.80025730136124	0.197533713425413	-1
12114.31884765625	13.53982609985186	-0.01935845434251074	-1
12123.4130859375	14.00674152454633	0.2049992872310842	-1
12132.50732421875	13.52706057155855	0.1215371913527673	-1
12141.6015625	13.76297041928416	0.00828923390238797	-1
12150.69580078125	13.66618319346705	0.03305023678170058	-1
12159.7900390625	14.35429565361686	0.5028052199148054	-1
12168.88427734375	13.5596595477652	0.2482224344361345	-1
12177.978515625	14.00212574030468	0.0334674361367692	-1
12187.07275390625	13.9859704954589	0.3302992882599317	-1
12196.1669921875	13.50051981216905	0.07669561343129194	-1
12205.26123046875	14.25310900844443	-0.004775048994077658	-1
12214.35546875	13.46280020031932	0.3487145562632865	-1
12223.44970703125	13.93873082861076	-0.2365078037469238	-1
12232.5439453125	13.41974358794017	-0.002504087876080224	-1
12241.63818359375	14.18892075883398	0.1472407867844613	-1
12250.732421875	13.38909189571046	-0.04178501863690633	-1
12259.82666015625	13.83465931828729	-0.0347763987412031	-1
12268.9208984375	13.88651476937709	-0.01068701550580301	-1
12278.01513671875	13.42998485922633	0.1525055064554588	-1
12287.109375	13.41685872278914	-0.6308522157773859	-1
12296.20361328125	13.87302802479601	0.181965027987819	-1
12305.2978515625	13.89632331089059	0.2596884725687793	-1
12314.39208984375	13.4363315625586	-0.1031950080522427	-1
12323.486328125	14.18517043413764	0.2002165669327919	-1
12332.58056640625	13.43914430608086	0.1403637332131344	-1
12341.6748046875	13.90447305494226	-0.008959380407314227	126.8766133195664
12350.76904296875	13.44981830713967	-0.06625272001533547	126.8766133195664
12359.86328125	14.17377521679106	0.2952288610572007	126.8766133195664
12368.95751953125	13.36666206916119	-0.002945847942186233	126.8766133195664
12378.0517578125	13.84554968423244	-0.01556833142971848	126.8766133195664
12387.14599609375	13.77926990738749	0.1080196082493126	126.8766133195664
12396.240234375	13.38822643616515	0.03436871920350265	126.8766133195664
12405.33447265625	14.05989516495409	-0.09197841869618706	126.8766133195664
12414.4287109375	13.39918892373907	0.2920536442446844	126.8766133195664
12423.52294921875	13.65486009774925	-0.2639715623784854	126.8766133195664
12432.6171875	13.41729145256179	-0.1024258096940893	126.8766133195664
12441.71142578125	13.99397599625302	0.2700348034095128	126.8766133195664
12450.8056640625	13.43597095441472	-0.05148857479622736	126.8766133195664
12459.89990234375	13.86487828074435	0.1960899855441468	126.8766133195664
12468.994140625	13.71955319876113	0.04686613787917376	126.8766133195664
12478.08837890625	13.45861714585032	0.1452474155276937	126.8766133195664
12487.1826171875	13.4366200490737	-0.3630877415425516	126.8766133195664
12496.27685546875	13.81489799200273	0.2113112167491707	126.8766133195664
12505.37109375	13.77342805545665	0.2615815156772513	126.8766133195664
12514.46533203125	13.5370133563296	-0.009270397512434553	126.8766133195664
12523.5595703125	13.97760438652091	0.258917035550728	126.8766133195664
12532.65380859375	13.49258643300372	0.1146716827647606	126.8766133195664
12541.748046875	13.8560794420337	0.1223972088313415	126.8766133195664
12550.84228515625	13.54848069530496	0.06140373745444379	126.8766133195664
12559.9365234375	14.01618945791596	0.3031041886177714	126.8766133195664
12569.03076171875	13.50564044781214	0.09152300365646371	126.8766133195664
12578.125	13.81345555942721	0.1037014155110727	126.8766133195664
12587.21923828125	13.78554448909098	0.1709412821314702	126.8766133195664
12596.3134765625	13.56730444041544	0.1472716031953967	126.8766133195664
12605.40771484375	14.02542102639926	0.09928425843369254	126.8766133195664
12614.501953125	13.55439466886457	0.3002967752060212	126.8766133195664
12623.59619140625	13.81821558692641	-0.01996127517677342	126.8766133195664
12632.6904296875	13.59485490260779	0.08332391037317277	126.8766133195664
12641.78466796875	14.04900479900894	0.3122309864387698	126.8766133195664
12650.87890625	13.55331284443293	0.06523583642655986	126.8766133195664
12659.97314453125	13.85485337434451	0.1565093502434297	126.8766133195664
12669.0673828125	13.80847916704168	0.09561342131736395	126.8766133195664
12678.16162109375	13.60711557949967	0.1961489920914857	126.8766133195664
12687.255859375	13.53326303163326	-0.2502838108812033	126.8766133195664
12696.35009765625	13.9564727492896	0.2267831945050695	126.8766133195664
12705.4443359375	13.6731789914583	0.2196216575698228	126.8766133195664
12714.53857421875	13.28754464239414	-0.2934209309042432	126.8766133195664
12723.6328125	14.06422246268063	0.09748052839304594	126.8766133195664
12732.72705078125	13.31422964504119	0.134807586136534	126.8766133195664
12741.8212890625	13.86444555097169	-0.1245772278227828	126.8766133195664
12750.91552734375	13.39983801839805	0.03625788724991584	126.8766133195664
12760.009765625	14.13028587463926	0.2444634975731853	126.8766133195664
12769.10400390625	13.36009900094259	0.110617566735253	126.8766133195664
12778.1982421875	13.86307524002495	0.06794633445048125	126.8766133195664
12787.29248046875	13.80018517973246	0.1956825401235999	126.8766133195664
12796.38671875	13.44859223945048	0.1801111916479722	126.8766133195664
12805.48095703125	14.1891371237203	0.03813285540471845	126.8766133195664
12814.5751953125	13.43416791369533	0.4776158018086652	126.8766133195664
12823.66943359375	13.88997660755832	-0.1404763510601616	126.8766133195664
12832.763671875	13.51443928652278	0.1626836832132242	126.8766133195664
12841.85791015625	14.18762256951601	0.3766761868117846	126.8766133195664
12850.9521484375	13.43575458952839	0.05987349091138917	126.8766133195664
12860.04638671875	13.94363509936751	0.2207004893843948	126.8766133195664
12869.140625	13.84994910358776	0.1273569432853959	126.8766133195664
12878.23486328125	13.44195704960311	0.2427786007683369	126.8766133195664
12887.3291015625	13.41433446578198	-0.4942130670565172	126.8766133195664
12896.42333984375	13.93736051766402	0.3152094929279682	126.8766133195664
12905.517578125	13.80177185556553	0.3074537674350651	126.8766133195664
12914.61181640625	13.50607317758479	-0.05665386348608607	126.8766133195664
12923.7060546875	14.33013490797698	0.4094614343761484	126.8766133195664
12932.80029296875	13.5367248698145	0.3234427003108436	126.8766133195664
12941.89453125	13.9675073584923	0.07743602498852997	126.8766133195664
12950.98876953125	13.55208677674374	0.05685089911564878	126.8766133195664
12960.0830078125	14.23882892594682	0.3977001724693774	126.8766133195664
12969.17724609375	13.46676688990198	0.07808440184491043	126.8766133195664
12978.271484375	13.98301350867909	0.1171383756826416	126.8766133195664
12987.36572265625	13.85182426593593	0.1945809314088523	126.8766133195664
12996.4599609375	13.48018151285428	0.08329874343648727	126.8766133195664
13005.55419921875	14.22591915439596	0.01121253803980188	126.8766133195664
13014.6484375	13.45457833463888	0.3723768441202109	126.8766133195664
13023.74267578125	13.869494064986	-0.2111369446541731	126.8766133195664
13032.8369140625	13.54076368102595	0.03821479585279476	126.8766133195664
13041.93115234375	14.25332537333076	0.3607865942565749	126.8766133195664
13051.025390625	13.47614270164284	0.006671270120574335	126.8766133195664
13060.11962890625	14.01388156579513	0.1689333330602021	126.8766133195664
13069.2138671875	13.87584076831827	0.08440344469876149	126.8766133195664
13078.30810546875	13.4792439316802	0.1483620117175933	126.8766133195664
13087.40234375	13.4890524731937	-0.5263783908258228	126.8766133195664
13096.49658203125	14.05275512370528	0.300148435094137	126.8766133195664
13105.5908203125	13.9085118661537	0.3126553800813344	126.8766133195664
13114.68505859375	13.5888688074194	-0.0943362967765789	126.8766133195664
13123.779296875	14.2802988624929	0.2934818724458074	126.8766133195664
13132.87353515625	13.48371547266429	0.1281394458761709	126.8766133195664
13141.9677734375	14.05044723158446	-0.007633727307167854	126.8766133195664
13151.06201171875	13.5504279792819	0.01322415121646759	126.8766133195664
13160.15625	14.2091148148912	0.233227766386767	126.8766133195664
13169.25048828125	13.40914170851013	-0.06574770959251794	126.8766133195664
13178.3447265625	13.95366000576735	-0.02587250283855552	126.8766133195664
13187.43896484375	13.83213506128014	0.07629583647924076	126.8766133195664
13196.533203125	13.51530474606809	0.03794132154435478	126.8766133195664
13205.62744140625	14.20767238231568	-0.01859232187077164	126.8766133195664
13214.7216796875	13.41382961438055	0.2987782598815704	126.8766133195664
13223.81591796875	13.83141384499238	-0.2907940537567506	126.8766133195664
13232.91015625	13.51566535421197	0.001160986328095498	126.8766133195664
13242.00439453125	14.21668758591266	0.3073258435242087	126.8766133195664
13251.0986328125	13.45991533516828	-0.02123640945263823	126.8766133195664
13260.19287109375	14.05239451556141	0.1835215971440365	126.8766133195664
13269.287109375	13.8417993595361	0.09346779310218137	126.8766133195664
13278.38134765625	13.53823942401879	0.1554521836646281	126.8766133195664
13287.4755859375	13.445851617557	-0.498499730902568	126.8766133195664
13296.56982421875	14.00645303803123	0.25333902097214	126.8766133195664
13305.6640625	13.8808171607038	0.285677688945058	126.8766133195664
13314.75830078125	13.70137854830963	0.00687756732609314	126.8766133195664
13323.8525390625	14.28073159226556	0.3681793887185696	126.8766133195664
13332.94677734375	13.65507646263557	0.2318636446224696	126.8766133195664
13342.041015625	14.10201419615915	0.1359027953128152	126.8766133195664
13351.13525390625	13.70455189997577	0.1138672412349099	126.8766133195664
13360.2294921875	14.2096917879214	0.3137069746384939	126.8766133195664
13369.32373046875	13.50268346103233	-0.01974986213908374	126.8766133195664
13378.41796875	14.07374251767904	0.08448376413844055	126.8766133195664
13387.51220703125	13.86624859169109	0.1768206005476398	126.8766133195664
13396.6064453125	13.62319870271668	0.03827243381845943	126.8766133195664
13405.70068359375	14.24171379109786	0.03111409550803118	126.8766133195664
13414.794921875	13.5111216915991	0.2890498587137049	126.8766133195664
13423.88916015625	13.84309754885406	-0.2903079546056029	126.8766133195664
13432.9833984375	13.60437495760619	-0.004177499560959405	126.8766133195664
13442.07763671875	14.17550613588168	0.2512398216233999	126.8766133195664
13451.171875	13.40229015377643	-0.1233649041241343	126.8766133195664
13460.26611328125	14.00681364617511	0.04567067885147393	126.8766133195664
13469.3603515625	13.7398914980759	0.01325277104424373	126.8766133195664
13478.45458984375	13.54444188409351	0.02967371234925262	126.8766133195664
13487.548828125	13.57761783333037	-0.418022753528496	126.8766133195664
13496.64306640625	14.02700770223233	0.2926400392473127	126.8766133195664
13505.7373046875	13.71630772546622	0.1140435141570827	126.8766133195664
13514.83154296875	13.68789180372856	-0.1172754998352628	126.8766133195664
13523.92578125	14.08088255892784	0.2437460850581404	126.8766133195664
13533.02001953125	13.48104697239959	0.006646973073026807	126.8766133195664
13542.1142578125	14.06018365146919	0.01956460609574903	126.8766133195664
13551.20849609375	13.65312917865863	0.1320886545802854	126.8766133195664
13560.302734375	14.16389455364878	0.218659394818244	126.8766133195664
13569.39697265625	13.51321321883359	0.002545946949225081	126.8766133195664
13578.4912109375	14.03328228393582	0.07056476761009178	126.8766133195664
13587.58544921875	13.82232651976663	0.1229784923615149	126.8766133195664
13596.6796875	13.66553409880806	0.06356309259569601	126.8766133195664
13605.77392578125	14.15538420145323	0.00866196394111074	126.8766133195664
13614.8681640625	13.57199234628586	0.2749499925937138	126.8766133195664
13623.96240234375	13.80487308560289	-0.2627467733783327	126.8766133195664
13633.056640625	13.70585008929373	0.05719433097985686	126.8766133195664
13642.15087890625	14.14478232202319	0.3359107554481196	126.8766133195664
13651.2451171875	13.52186781428669	-0.02773689937873024	126.8766133195664
13660.33935546875	14.04417264988097	0.156925388663403	126.8766133195664
13669.43359375	13.77955839390259	0.1052895098304876	126.8766133195664
13678.52783203125	13.68904574978897	0.1252134764697161	126.8766133195664
13687.6220703125	13.48147970217224	-0.3198509835874853	126.8766133195664
13696.71630859375	14.03075802692867	0.2076869405514298	126.8766133195664
13705.810546875	13.75900372970149	0.2163369911166005	126.8766133195664
13714.90478515625	13.61533744518011	-0.07553835605495157	126.8766133195664
13723.9990234375	14.11398638653593	0.2009523081499602	126.8766133195664
13733.09326171875	13.48934095970881	0.1539552686828247	126.8766133195664
13742.1875	14.06400609779431	0.01128895579739139	126.8766133195664
13751.28173828125	13.61879928336135	0.1905778444374853	126.8766133195664
13760.3759765625	14.1343246858507	0.2221200815907346	126.8766133195664
13769.47021484375	13.47318571486303	0.01765207897546226	126.8766133195664
13778.564453125	14.04395628499464	0.1331388331476151	126.8766133195664
13787.65869140625	13.77544746106237	0.1470556993625758	126.8766133195664
13796.7529296875	13.60963983650682	0.08941962151635699	126.8766133195664
13805.84716796875	14.09703780377362	-0.005579203497124041	126.8766133195664
13814.94140625	13.44448130661026	0.2819586696673109	126.8766133195664
13824.03564453125	13.74118968739387	-0.3068937731044281	126.8766133195664
13833.1298828125	13.65752859801395	0.09831270390853263	126.8766133195664
13842.22412109375	14.16728427020124	0.3550288651763255	126.8766133195664
13851.318359375	13.52395934152119	0.02923082228177224	126.8766133195664
13860.41259765625	14.09011412741114	0.2269450502517317	126.8766133195664
13869.5068359375	13.82283137116806	0.1599456902855658	126.8766133195664
13878.60107421875	13.69344516914429	0.1937526096504081	126.8766133195664
13887.6953125	13.55562073655376	-0.298562388267644	126.8766133195664
13896.78955078125	14.06797278737698	0.3096245971330525	126.8766133195664
13905.8837890625	13.76095101367844	0.2093435521895646	126.8766133195664
13914.97802734375	13.68140085713874	-0.04303564137447494	126.8766133195664
13924.072265625	14.11730398145962	0.2493085767802591	126.8766133195664
13933.16650390625	13.51249200254584	0.1233491830976142	126.8766133195664
13942.2607421875	14.05982304332531	0.02843056857267956	126.8766133195664
13951.35498046875	13.64916248907596	0.170733648095432	126.8766133195664
13960.44921875	14.13829137543337	0.2298520432319395	126.8766133195664
13969.54345703125	13.53340727489082	0.02205404545791576	126.8766133195664
13978.6376953125	14.0315513648452	0.1312795314188147	126.8766133195664
13987.73193359375	13.77205774450991	0.1005845259640342	126.8766133195664
13996.826171875	13.6782275054726	0.08592949254325599	126.8766133195664
14005.92041015625	14.08347893756377	0.01062258663755245	126.8766133195664
14015.0146484375	13.53088301788366	0.2443196152983785	126.8766133195664
14024.10888671875	13.75857099992883	-0.267386506134972	126.8766133195664
14033.203125	13.72431322626033	0.07033205671541402	126.8766133195664
14042.29736328125	14.14672960600014	0.3459362569679065	126.8766133195664
14051.3916015625	13.47066145785588	-0.01042679893098641	126.8766133195664
14060.48583984375	14.07395888256537	0.1602900433573547	126.8766133195664
14069.580078125	13.74602183652185	0.1519556393901464	126.8766133195664
14078.67431640625	13.63481028494958	0.09904886219087992	126.8766133195664
14087.7685546875	13.48328274289164	-0.3238306270151591	126.8766133195664
14096.86279296875	14.06040001635552	0.2926394625198249	126.8766133195664
14105.95703125	13.7190483473597	0.2172748105301677	126.8766133195664
14115.05126953125	13.66416378786132	-0.03189946718756652	126.8766133195664
14124.1455078125	14.10944272392305	0.2593837798689795	126.8766133195664
14133.23974609375	13.49669736584394	0.1754616500848633	126.8766133195664
14142.333984375	14.07749284237538	0.04595829687913824	126.8766133195664
14151.42822265625	13.6070434578709	0.2248198142678752	126.8766133195664
14160.5224609375	14.01424217393901	0.1646011206628878	126.8766133195664
14169.61669921875	13.41613750650138	-0.04954382598033155	126.8766133195664
14178.7109375	14.03667200048828	0.1616690161766181	126.8766133195664
14187.80517578125	13.6868821009257	0.1386434148343352	126.8766133195664
14196.8994140625	13.68406935740344	0.1115771584973435	126.8766133195664
14205.99365234375	14.2004602194381	0.1591854441065025	126.8766133195664
14215.087890625	13.53816730239002	0.4051327967452264	126.8766133195664
14224.18212890625	13.74717578258226	-0.2605622229436727	126.8766133195664
14233.2763671875	13.7369345112961	0.1623337735702872	126.8766133195664
14242.37060546875	14.13547863191112	0.3851828075920931	126.8766133195664
14251.46484375	13.56095773708317	0.0363140053015682	126.8766133195664
14260.55908203125	14.14261867315992	0.284327962149146	126.8766133195664
14269.6533203125	13.77905354250116	0.1820285103573515	126.8766133195664
14278.74755859375	13.7303714430775	0.1618162153478232	126.8766133195664
14287.841796875	13.54343218129065	-0.2463769597770256	126.8766133195664
14296.93603515625	14.04785085294853	0.2797868832901902	126.8766133195664
14306.0302734375	13.69813307501472	0.165524537093746	126.8766133195664
14315.12451171875	13.69834943990105	-0.03760825697886336	126.8766133195664
14324.21875	14.10518754782528	0.2533799710011309	126.8766133195664
14333.31298828125	13.52287751708955	0.1506266915389021	126.8766133195664
14342.4072265625	14.10287965570446	0.04591647963171619	126.8766133195664
14351.50146484375	13.73166963239546	0.2691166958764899	126.8766133195664
14360.595703125	14.17788614963128	0.2755815118513736	126.8766133195664
14369.68994140625	13.47859483702121	0.004803204705404268	126.8766133195664
14378.7841796875	14.16793336486022	0.161133852084088	126.8766133195664
14387.87841796875	13.72698172652504	0.1690498342984863	126.8766133195664
14396.97265625	13.72366413160135	0.04493300509663151	126.8766133195664
14406.06689453125	14.13050223952559	0.05232870849367988	126.8766133195664
14415.1611328125	13.49309128440515	0.2658698506148161	126.8766133195664
14424.25537109375	13.7258999020934	-0.3776517675565358	126.8766133195664
14433.349609375	13.76585528443519	0.1238394697244308	126.8766133195664
14442.44384765625	14.17233278421555	0.3273927918507886	126.8766133195664
14451.5380859375	13.42572968312856	-0.07831657386376892	126.8766133195664
14460.63232421875	14.18949773186418	0.1328387095547732	126.8766133195664
14469.7265625	13.68255480319915	0.1347010590054995	126.8766133195664
14478.82080078125	13.99981784818385	0.1662932748512053	126.8766133195664
14487.9150390625	13.46265595706176	-0.1934650249883834	126.8766133195664
14497.00927734375	15.02372861191376	0.6342055513632606	126.8766133195664
14506.103515625	14.42713849868041	1.041324822885024	126.8766133195664
14515.19775390625	13.79787728761164	0.1602227871930023	126.8766133195664
14524.2919921875	15.37950460666473	0.5699050860496717	126.8766133195664
14533.38623046875	13.39810709930743	0.8355564960476137	126.8766133195664
14542.48046875	14.93718265738281	-0.278302039236256	126.8766133195664
14551.57470703125	13.75583037803535	0.6637426374199934	126.8766133195664
14560.6689453125	15.2786064480074	0.5061901068743107	126.8766133195664
14569.76318359375	13.23417463710006	0.02533066312221738	126.8766133195664
14578.857421875	14.83376024171832	0.1056616429865891	126.8766133195664
14587.95166015625	14.11607791377043	0.1986377358508065	126.8766133195664
14597.0458984375	13.51761263818892	0.05736485797799418	126.8766133195664
14606.14013671875	15.1192176484129	-0.3503451736908863	126.8766133195664
14615.234375	13.06800640440064	0.7164465244165932	126.8766133195664
14624.32861328125	14.0035681728802	-1.303507584657298	126.8766133195664
14633.4228515625	13.41959934468262	-0.0564563385390624	126.8766133195664
14642.51708984375	15.08337319891133	0.4412969558028433	126.8766133195664
14651.611328125	13.09512413682033	-0.3000988475181162	126.8766133195664
14660.70556640625	14.7676968297597	0.1712758632495754	126.8766133195664
14669.7998046875	14.0402059602983	-0.007840972813261904	126.8766133195664
14678.89404296875	13.46316080846319	0.1453748920225514	126.8766133195664
14687.98828125	13.01045334463756	-1.594619922685319	126.8766133195664
14697.08251953125	14.74115607037021	0.5046562075413665	126.8766133195664
14706.1767578125	14.00652515966	0.3515551919336806	126.8766133195664
14715.27099609375	13.43705277884636	-0.4692490098994409	126.8766133195664
14724.365234375	15.03772020789626	0.3087864486688953	126.8766133195664
14733.45947265625	12.94063960798259	0.07414281918899224	126.8766133195664
14742.5537109375	14.66261561663337	-0.4026497582498774	126.8766133195664
14751.64794921875	13.35944990628361	0.06672605746001559	126.8766133195664
14760.7421875	14.96105491650759	0.3835234690540315	126.8766133195664
14769.83642578125	12.93919717540707	-0.3957323178258969	126.8766133195664
14778.9306640625	14.6717750634879	0.07750947274350457	126.8766133195664
14788.02490234375	13.85615156366248	0.04368771714496444	126.8766133195664
14797.119140625	13.41714720930424	-0.05575024196680811	126.8766133195664
14806.21337890625	14.96516584934781	-0.2586350502880551	126.8766133195664
14815.3076171875	12.94063960798259	0.5730278420487731	126.8766133195664
14824.40185546875	13.8420878460512	-1.195668014110574	126.8766133195664
14833.49609375	13.39385192320966	-0.1257927158091696	126.8766133195664
14842.59033203125	14.98709082449565	0.6378759850014459	126.8766133195664
14851.6845703125	12.91518067302474	-0.3939989615402124	126.8766133195664
14860.77880859375	14.67033263091238	0.2124269121371791	126.8766133195664
14869.873046875	13.82412956048603	0.002822699438651405	126.8766133195664
14878.96728515625	13.40265076192031	0.1288340400228695	126.8766133195664
14888.0615234375	12.90537213151123	-1.440943662395247	126.8766133195664
14897.15576171875	14.66852959019299	0.5295154272255453	126.8766133195664
14906.25	13.81302282965456	0.4204951649489418	126.8766133195664
14915.34423828125	13.39356343669456	-0.4526665910189375	126.8766133195664
14924.4384765625	14.88705812538363	0.4309073912400333	126.8766133195664
14933.53271484375	12.92232071427354	0.1386275590695254	126.8766133195664
14942.626953125	14.64126761451574	-0.2283756453714298	126.8766133195664
14951.72119140625	13.40517501892746	0.2612804809160457	126.8766133195664
14960.8154296875	14.88273082765709	0.522774167504523	126.8766133195664
14969.90966796875	12.90443455033714	-0.2294092920885573	126.8766133195664
14979.00390625	14.61970324751178	0.2138814848555778	126.8766133195664
14988.09814453125	13.76801893329846	0.2007451836152641	126.8766133195664
14997.1923828125	13.39897255885274	0.06670841410492612	126.8766133195664
15006.28662109375	14.85921917667618	-0.08622471930720266	126.8766133195664
15015.380859375	12.88662050802952	0.6725540476589014	126.8766133195664
15024.47509765625	13.72388049648768	-1.066959591833113	126.8766133195664
15033.5693359375	13.3978907344211	0.03620206362624245	126.8766133195664
15042.66357421875	14.79445395403552	0.7420892278807096	126.8766133195664
15051.7578125	12.9280904445756	-0.2716900342582148	126.8766133195664
15060.85205078125	14.61912627448157	0.4157840370286882	126.8766133195664
15069.9462890625	13.74724790421104	0.1642067797424918	126.8766133195664
15079.04052734375	13.44267826589087	0.2737904075879074	126.8766133195664
15088.134765625	12.91474794325208	-1.145218898835025	126.8766133195664
15097.22900390625	14.59597523164454	0.6394110560658348	126.8766133195664
15106.3232421875	13.66055770642253	0.4990122426648431	126.8766133195664
15115.41748046875	13.37264816434958	-0.3357535105424257	126.8766133195664
15124.51171875	14.78190479062853	0.5710270417366858	126.8766133195664
15133.60595703125	12.84031842235546	0.252008049659587	126.8766133195664
15142.7001953125	14.50084680328927	-0.1706151360210035	126.8766133195664
15151.79443359375	13.37517242135673	0.41792786321536	126.8766133195664
15160.888671875	14.71757229776052	0.5777102577499536	126.8766133195664
15169.98291015625	12.86758039803271	-0.1735362069592815	126.8766133195664
15179.0771484375	14.51339596669626	0.2975843770345753	126.8766133195664
15188.17138671875	13.70960041399007	0.2741511445550895	126.8766133195664
15197.265625	13.44801526642028	0.1984069818892693	126.8766133195664
15206.35986328125	14.79661760289879	0.07137300456341678	126.8766133195664
15215.4541015625	12.93450926953665	0.7506925549697723	126.8766133195664
15224.54833984375	13.71702894175398	-0.9094251883190259	126.8766133195664
15233.642578125	13.4616462542589	0.1683034195797632	126.8766133195664
15242.73681640625	14.76171073457131	0.8236381175312283	126.8766133195664
15251.8310546875	12.92837893109071	-0.1849715508543641	126.8766133195664
15260.92529296875	14.66578896829951	0.4778039294148925	126.8766133195664
15270.01953125	13.70368644043046	0.2753196315251197	126.8766133195664
15279.11376953125	13.45320802369214	0.2558376496423909	126.8766133195664
15288.2080078125	12.88106714261379	-1.071257921959344	126.8766133195664
15297.30224609375	14.46911328662792	0.5828298401454415	126.8766133195664
15306.396484375	13.49871677144966	0.3673104900857778	126.8766133195664
15315.49072265625	13.31927815905549	-0.3577773420896528	126.8766133195664
15324.5849609375	14.46781509730996	0.4160265673569882	126.8766133195664
15333.67919921875	12.8065655000884	0.1287251643693611	126.8766133195664
15342.7734375	14.34629015282275	-0.1675979678569323	126.8766133195664
15351.86767578125	13.26569178887508	0.3486130439690809	126.8766133195664
15360.9619140625	14.36237327603975	0.3700678514907722	126.8766133195664
15370.05615234375	12.70386430071167	-0.3368975453079454	126.8766133195664
15379.150390625	14.32703367793962	0.2142823558766115	126.8766133195664
15388.24462890625	13.32302848375183	0.1292492789470367	126.8766133195664
15397.3388671875	13.21419694592916	-0.01327182379390346	126.8766133195664
15406.43310546875	14.44293313538231	0.02093137666178691	126.8766133195664
15415.52734375	12.65446098500025	0.5903700316560091	126.8766133195664
15424.62158203125	13.40120832934479	-0.9949301202174926	126.8766133195664
15433.7158203125	13.21224966195222	0.1474734211693601	126.8766133195664
15442.81005859375	14.51173716923442	0.7655028920748188	126.8766133195664
15451.904296875	12.72218319442072	-0.1066650504004936	126.8766133195664
15460.99853515625	14.48750430196575	0.4876886996838871	126.8766133195664
15470.0927734375	13.42818181850694	0.3459478527877961	126.8766133195664
15479.18701171875	13.33824614742352	0.2799685416549603	126.8766133195664
15488.28125	12.75788340066474	-0.883198276157398	126.8766133195664
15497.37548828125	14.58342606823755	0.8427636335888675	126.8766133195664
15506.4697265625	13.55792862867458	0.6995521675105821	126.8766133195664
15515.56396484375	13.40012650491315	-0.0474624194539845	126.8766133195664
15524.658203125	14.70444616132333	0.7239712042621115	126.8766133195664
15533.75244140625	12.75896522509637	0.4759551215064973	126.8766133195664
15542.8466796875	14.67804964519139	0.02344796767104851	126.8766133195664
15551.94091796875	13.44664495547354	0.8546672500857406	126.8766133195664
15561.03515625	14.73711725915876	0.7004829948702276	126.8766133195664
15570.12939453125	12.80692610823227	-0.03859880749459543	126.8766133195664
15579.2236328125	14.70163341780107	0.5239830780787961	126.8766133195664
15588.31787109375	13.61468835052113	0.4208549648538789	126.8766133195664
15597.412109375	13.47996514796795	0.2709150376737754	126.8766133195664
15606.50634765625	14.75521978798149	0.1157006278469311	126.8766133195664
15615.6005859375	12.80461821611145	0.8086066183786307	126.8766133195664
15624.69482421875	13.59081609139634	-1.064207411650847	126.8766133195664
15633.7890625	13.51717990841626	0.3006867083224976	126.8766133195664
15642.88330078125	14.76820168116113	0.8954497200969398	126.8766133195664
15651.9775390625	12.84781907174815	-0.1794035985496544	126.8766133195664
15661.07177734375	14.76625439718418	0.5248218501052873	126.8766133195664
15670.166015625	13.61014468790826	0.3188030265258214	126.8766133195664
15679.26025390625	13.57826692798936	0.2809573530893629	126.8766133195664
15688.3544921875	12.82553348845643	-1.035291606555114	126.8766133195664
15697.44873046875	14.78558299369609	0.7362135450513808	126.8766133195664
15706.54296875	13.61649139124052	0.5456470300359435	126.8766133195664
15715.63720703125	13.58620030715469	-0.1983631268478681	126.8766133195664
15724.7314453125	14.80750796884393	0.591035521601407	126.8766133195664
15733.82568359375	12.8598633837537	0.284853002238287	126.8766133195664
15742.919921875	14.81169102331293	-0.1559310222101491	126.8766133195664
15752.01416015625	13.56896323787728	0.7022985111995871	126.8766133195664
15761.1083984375	14.79632911638369	0.4874812619822027	126.8766133195664
15770.20263671875	12.88301442659073	-0.2883209468603347	126.8766133195664
15779.296875	14.8794132327334	0.3861251297836835	126.8766133195664
15788.39111328125	13.6213235403685	0.2029733192210963	126.8766133195664
15797.4853515625	13.63163693328344	0.03833941121778001	126.8766133195664
15806.57958984375	14.84234271554264	-0.04465328901578791	126.8766133195664
15815.673828125	12.87068162807007	0.5856650033892336	126.8766133195664
15824.76806640625	13.61461622889235	-1.344381948202521	126.8766133195664
15833.8623046875	13.65796132778661	0.1209301078910879	126.8766133195664
15842.95654296875	14.83671722849813	0.7309328920374493	126.8766133195664
15852.05078125	12.83346686762176	-0.3968939855478885	126.8766133195664
15861.14501953125	14.8588585685323	0.3156105510819041	126.8766133195664
15870.2392578125	13.58158452291304	0.1526373187684779	126.8766133195664
15879.33349609375	13.65608616543844	0.07371422050715787	126.8766133195664
15888.427734375	12.87378285810743	-1.165729412096436	126.8766133195664
15897.52197265625	14.89686666689714	0.6400037607617961	126.8766133195664
15906.6162109375	13.57393963026281	0.3560614802906015	126.8766133195664
15915.71044921875	13.66300984180091	-0.3466403732895453	126.8766133195664
15924.8046875	14.8567670412978	0.4757269391077265	126.8766133195664
15933.89892578125	12.83325050273544	0.1515496566861357	126.8766133195664
15942.9931640625	14.88287507091464	-0.3256580696787386	126.8766133195664
15952.08740234375	13.68457420880487	0.7008510981320917	126.8766133195664
15961.181640625	14.88583205769444	0.4382316706940283	126.8766133195664
15970.27587890625	12.88799081897626	-0.4002081813231939	126.8766133195664
15979.3701171875	14.90090547810858	0.2786462547422638	126.8766133195664
15988.46435546875	13.5528079930315	0.03848917128500581	126.8766133195664
15997.55859375	13.6618558957405	-0.0680626352425851	126.8766133195664
16006.65283203125	14.78753027767304	-0.1587802645890432	126.8766133195664
16015.7470703125	12.8956357116265	0.5003544380671956	126.8766133195664
16024.84130859375	13.57343477886138	-1.432835612186354	126.8766133195664
16033.935546875	13.71205254936845	0.07970946488425634	126.8766133195664
16043.02978515625	14.84630940512531	0.6838047955047518	126.8766133195664
16052.1240234375	12.87919198026562	-0.464930210996112	126.8766133195664
16061.21826171875	14.97555136389153	0.3066261943864626	126.8766133195664
16070.3125	13.60163433571271	0.1447903795283594	126.8766133195664
16079.40673828125	13.71226891425478	-0.009717524550350465	126.8766133195664
16088.5009765625	12.92102252495558	-1.193930422728559	126.8766133195664
16097.59521484375	14.96747374146864	0.6187180806122352	126.8766133195664
16106.689453125	13.57141537325566	0.2785347795301723	126.8766133195664
16115.78369140625	13.76390800045824	-0.3678164680371313	126.8766133195664
16124.8779296875	14.83433721474853	0.4204797036247781	126.8766133195664
16133.97216796875	12.90638183431409	0.09197450667510787	126.8766133195664
16143.06640625	15.0000727176753	-0.3084240016768505	126.8766133195664
16152.16064453125	13.77869293435728	0.7442106530149794	126.8766133195664
16161.2548828125	14.91482495246231	0.3768011827787218	126.8766133195664
16170.34912109375	13.00879454717571	-0.4044758408308416	126.8766133195664
16179.443359375	15.01925707092966	0.3225694476334642	126.8766133195664
16188.53759765625	13.5841087799202	0.004798200088893187	126.8766133195664
16197.6318359375	13.84071753510446	-0.06324932131804278	126.8766133195664
16206.72607421875	14.95052515870633	-0.06247044068711694	126.8766133195664
16215.8203125	13.0582699845159	0.5508895815183456	126.8766133195664
16224.91455078125	13.73614117337956	-1.406283266415059	126.8766133195664
16234.0087890625	13.96620916917433	0.1925225821545452	126.8766133195664
16243.10302734375	14.99891877161488	0.7383651323073365	126.8766133195664
16252.197265625	13.05949605220509	-0.4470823733307477	126.8766133195664
16261.29150390625	15.11820794561004	0.3136436174527771	126.8766133195664
16270.3857421875	13.63300724423018	0.07930805636174308	126.8766133195664
16279.47998046875	13.85240123896614	-0.09828023920896267	149.9450884685784
16288.57421875	12.9623482182441	-1.219683919057374	149.9450884685784
16297.66845703125	15.02365649028498	0.4988181640904975	149.9450884685784
16306.7626953125	13.5641310887493	0.1793014842821568	149.9450884685784
16315.85693359375	13.75308975614187	-0.4394770910875295	149.9450884685784
16324.951171875	14.79243454842979	0.2885667314425261	149.9450884685784
16334.04541015625	12.8917411436726	0.03517069099253534	149.9450884685784
16343.1396484375	14.91972922321907	-0.4218865697695143	149.9450884685784
16352.23388671875	13.75006064773329	0.6679730127194694	149.9450884685784
16361.328125	14.7361075563559	0.2574637929454107	149.9450884685784
16370.42236328125	12.84673724731651	-0.5930010804285925	149.9450884685784
16379.5166015625	14.92297469651398	0.2385392844866555	149.9450884685784
16388.61083984375	13.45126073971519	-0.04805353268048222	149.9450884685784
16397.705078125	13.79960820670226	-0.098809865582968	149.9450884685784
16406.79931640625	14.69514247121125	-0.1208024767920467	149.9450884685784
16415.8935546875	12.90241514473142	0.4072317593297065	149.9450884685784
16424.98779296875	13.44311099566352	-1.496700541725105	149.9450884685784
16434.08203125	13.80617127492086	0.1116990041847111	149.9450884685784
16443.17626953125	14.70783587787579	0.6690485336185768	149.9450884685784
16452.2705078125	12.89123629227117	-0.4724443107993381	149.9450884685784
16461.36474609375	14.91720496621191	0.3175656923213042	149.9450884685784
16470.458984375	13.38447611146881	0.1051504227190609	149.9450884685784
16479.55322265625	13.73368903800118	-0.08610192487153984	149.9450884685784
16488.6474609375	12.85878155932207	-1.022459058330912	149.9450884685784
16497.74169921875	14.92831169704338	0.6329558743574252	149.9450884685784
16506.8359375	13.37632636741714	0.2628884683125884	149.9450884685784
16515.93017578125	13.76736983863948	-0.2973449510891664	149.9450884685784
16525.0244140625	14.59539825861433	0.4192928055321066	149.9450884685784
16534.11865234375	12.84817967989203	0.1313992485874085	149.9450884685784
16543.212890625	14.91770981761334	-0.2300793058903697	149.9450884685784
16552.30712890625	13.82997141241687	0.9778946004870613	149.9450884685784
16561.4013671875	14.67826601007772	0.4125035985066323	149.9450884685784
16570.49560546875	12.88806294060504	-0.3856976455790948	149.9450884685784
16579.58984375	14.95910763253065	0.4519209207480535	149.9450884685784
16588.68408203125	13.39176039597516	0.1223426633980403	149.9450884685784
16597.7783203125	13.82052347904724	0.02402387841820897	149.9450884685784
16606.87255859375	14.60571165152927	0.02302056147551479	149.9450884685784
16615.966796875	12.85200212621714	0.486756040963046	149.9450884685784
16625.06103515625	13.31624905064691	-1.446055889065474	149.9450884685784
16634.1552734375	13.76816317655601	0.2174513377849213	149.9450884685784
16643.24951171875	14.5716702427471	0.7087811671058502	149.9450884685784
16652.34375	12.83476505693973	-0.3850980729178868	149.9450884685784
16661.43798828125	14.91778193924212	0.4267417165945003	149.9450884685784
16670.5322265625	13.29079011568905	0.2438080291237796	149.9450884685784
16679.62646484375	13.76419648697335	-0.01628956340001386	178.31307817885
16688.720703125	12.83433232716707	-0.8429073933954554	178.31307817885
16697.81494140625	14.9389856981022	0.7441044753434281	178.31307817885
16706.9091796875	13.26612451864773	0.3122586149873934	178.31307817885
16716.00341796875	13.71688469849643	-0.2374264651592529	178.31307817885
16725.09765625	14.50243347912234	0.4339576080047799	178.31307817885
16734.19189453125	12.8295001780391	0.2349462986315006	178.31307817885
16743.2861328125	14.89571272083673	-0.1699119776243822	178.31307817885
16752.38037109375	13.84324179211161	1.113577253129259	178.31307817885
16761.474609375	14.68836303810633	0.4984448762184921	178.31307817885
16770.56884765625	12.92181586287211	-0.2388043417235705	178.31307817885
16779.6630859375	15.0051212316896	0.6270141227795419	178.31307817885
16788.75732421875	13.29446831875662	0.1987015744063032	178.31307817885
16797.8515625	13.85485337434451	0.1042810611233297	178.31307817885
16806.94580078125	14.60001404285598	0.1678263987130316	178.31307817885
16816.0400390625	12.95535242025285	0.6608632731378448	178.31307817885
16825.13427734375	13.28631857470496	-1.32324321409217	178.31307817885
16834.228515625	13.92466711099948	0.3920074618817332	178.31307817885
16843.32275390625	14.66261561663337	0.9213894485373355	178.31307817885
16852.4169921875	13.05394268678936	-0.1394472611528358	178.31307817885
16861.51123046875	14.89412604500366	0.5628891088696912	178.31307817885
16870.60546875	13.38187973283288	0.3136932673395325	178.31307817885
16879.69970703125	13.98907172549626	0.2019091476660036	178.31307817885
16888.7939453125	13.03346014421703	-0.5581639335216297	178.31307817885
16897.88818359375	14.85395429777554	0.7618805130260234	178.31307817885
16906.982421875	13.34300617492273	0.2925576103781224	178.31307817885
16916.07666015625	13.92445074611315	-0.02677947857174068	178.31307817885
16925.1708984375	14.40312199629808	0.4845949940661906	178.31307817885
16934.26513671875	13.00843393903183	0.2192748023912881	178.31307817885
16943.359375	14.9002563834496	-0.01553097941198478	178.31307817885
16952.45361328125	13.92033981327293	1.112423272606092	178.31307817885
16961.5478515625	14.45230894712316	0.3836277510796786	178.31307817885
16970.64208984375	12.92296980893252	-0.3702281813414382	178.31307817885
16979.736328125	14.8385923908463	0.4949220459709111	178.31307817885
16988.83056640625	13.26886514054121	0.1061613593468767	178.31307817885
16997.9248046875	13.92055617815926	0.07030750260187479	178.31307817885
17007.01904296875	14.39071707614864	0.124502504931533	178.31307817885
17016.11328125	12.86152218121555	0.380186753530834	178.31307817885
17025.20751953125	13.240304975546	-1.339371635453425	178.31307817885
17034.3017578125	13.88831781009648	0.3435653457900806	178.31307817885
17043.39599609375	14.41163234849362	0.7079571070022905	178.31307817885
17052.490234375	12.98730230180053	-0.2735907696842195	178.31307817885
17061.58447265625	14.7995745896786	0.4638628114762665	178.31307817885
17070.6787109375	13.28833798031068	0.2718738099828477	178.31307817885
17079.77294921875	13.87915836324196	0.03948329157031033	149.9450884685784
17088.8671875	12.97727739540069	-0.5762972487187937	149.9450884685784
17097.96142578125	14.81219587471436	0.6923074441500998	149.9450884685784
17107.0556640625	13.28415492584168	0.2640931292309081	149.9450884685784
17116.14990234375	13.90021787884449	-0.06586903716769887	149.9450884685784
17125.244140625	14.38711099470985	0.4554856328341861	149.9450884685784
17134.33837890625	12.99747145145791	0.2318325516683055	149.9450884685784
17143.4326171875	14.81623468592581	-0.1115398559760423	149.9450884685784
17152.52685546875	13.92134951607579	1.092547849303282	149.9450884685784
17161.62109375	14.38819281914149	0.323727039476481	149.9450884685784
17170.71533203125	13.04182625315502	-0.3363825815089497	149.9450884685784
17179.8095703125	14.82986567376443	0.5339831935567563	149.9450884685784
17188.90380859375	13.27925065508493	0.0605680068468536	149.9450884685784
17197.998046875	13.9627473309931	0.05420706764113009	149.9450884685784
17207.09228515625	14.36215691115343	0.1104118726680073	149.9450884685784
17216.1865234375	13.03735471217093	0.3824951333547555	149.9450884685784
17225.28076171875	13.25674870690688	-1.23556978885911	149.9450884685784
17234.375	13.97919106235398	0.3478246574537283	149.9450884685784
17243.46923828125	14.38162975092289	0.7036026808354233	149.9450884685784
17252.5634765625	13.0100206148649	-0.2860881156062669	149.9450884685784
17261.65771484375	14.79798791384553	0.4150416677858703	149.9450884685784
17270.751953125	13.24946442240053	0.2738240352702368	149.9450884685784
17279.84619140625	13.94868361338182	-0.01547906074777237	149.9450884685784
17288.9404296875	13.08783985231398	-0.4456051579461251	149.9450884685784
17298.03466796875	14.82553837603788	0.7011957854667446	149.9450884685784
17307.12890625	13.23475161013026	0.1909153627121724	149.9450884685784
17316.22314453125	14.00010633469896	-0.04653307289093141	149.9450884685784
17325.3173828125	14.35588232944993	0.4636085445197831	149.9450884685784
17334.41162109375	13.03966260429175	0.2079431831343584	149.9450884685784
17343.505859375	14.84659789164041	-0.1131795838440752	149.9450884685784
17352.60009765625	14.03205621624663	1.172862662316428	149.9450884685784
17361.6943359375	14.32905308354534	0.2841851276535934	149.9450884685784
17370.78857421875	13.04918265929016	-0.3869369495041734	149.9450884685784
17379.8828125	14.96509372771904	0.5803984295714268	149.9450884685784
17388.97705078125	13.05790937637203	0.0181581153034974	149.9450884685784
17398.0712890625	13.97565710254396	-0.1504358622022242	149.9450884685784
17407.16552734375	14.32984642146187	0.1634935591318197	149.9450884685784
17416.259765625	12.86678706011618	0.2713237362577994	149.9450884685784
17425.35400390625	13.14863838537197	-1.464376064395484	149.9450884685784
17434.4482421875	14.03119075670132	0.3860772758191939	149.9450884685784
17443.54248046875	14.40557413167645	0.6720730427074868	149.9450884685784
17452.63671875	12.92520557942457	-0.3239809988306706	149.9450884685784
17461.73095703125	15.01579523274842	0.4077102350519951	149.9450884685784
17470.8251953125	13.1196454906041	0.3382559046290655	149.9450884685784
17479.91943359375	14.08715714063134	-0.1338339015723796	149.9450884685784
17489.013671875	12.94741904108751	-0.4671384199274148	149.9450884685784
17498.10791015625	15.03526807251788	0.6913725133670453	149.9450884685784
17507.2021484375	13.17561187453412	0.1849793280729757	149.9450884685784
17516.29638671875	14.06256366521879	-0.06809525646259068	149.9450884685784
17525.390625	14.41617601110649	0.3768504943839646	149.9450884685784
17534.48486328125	12.94785177086017	0.2221060654293128	149.9450884685784
17543.5791015625	15.00223636653857	-0.2724129252977434	149.9450884685784
17552.67333984375	14.08506561339684	1.319189966243282	149.9450884685784
17561.767578125	14.4078099021685	0.205044248591611	149.9450884685784
17570.86181640625	12.85301182902	-0.5652376784760762	149.9450884685784
17579.9560546875	14.98031139139073	0.4366219388862681	149.9450884685784
17589.05029296875	13.11156786818121	-0.06083335182757965	149.9450884685784
17598.14453125	14.07619465305742	-0.05097373112411135	149.9450884685784
17607.23876953125	14.36359934372894	0.03104668439259395	149.9450884685784
17616.3330078125	12.94035112146749	0.3151193176374147	149.9450884685784
17625.42724609375	13.09389806913115	-1.617440686322994	149.9450884685784
17634.521484375	14.09674931725852	0.3129167186378608	149.9450884685784
17643.61572265625	14.41134386197852	0.629348314304539	149.9450884685784
17652.7099609375	12.98456167990705	-0.4189644921302317	149.9450884685784
17661.80419921875	15.12361706776823	0.429029624359239	149.9450884685784
17670.8984375	13.13248314052619	0.2627015324574805	149.9450884685784
17679.99267578125	14.21380272076162	-0.1613515863014398	149.9450884685784
17689.0869140625	13.04802871322974	-0.4517367227897202	149.9450884685784
17698.18115234375	15.20749452203447	0.7786935926929077	149.9450884685784
17707.275390625	13.15029718283381	0.1426227237356507	149.9450884685784
17716.36962890625	14.29313651241499	-0.04757315815777016	149.9450884685784
17725.4638671875	14.52306026495222	0.4883715278177995	149.9450884685784
17734.55810546875	13.05754876822815	0.2195228869473029	149.9450884685784
17743.65234375	15.21701457703287	-0.219460371702162	149.9450884685784
17752.74658203125	14.30640689210974	1.484118411902827	149.9450884685784
17761.8408203125	14.54224461820658	0.2346156857961894	149.9450884685784
17770.93505859375	13.18405010510088	-0.4501296362665139	149.9450884685784
17780.029296875	15.21881761775227	0.6340267929248769	149.9450884685784
17789.12353515625	13.28069308766044	-0.05004118483260717	149.9450884685784
17798.2177734375	14.39006798148966	0.05115012441520618	149.9450884685784
17807.31201171875	14.63557000584245	0.1901852689198272	149.9450884685784
17816.40625	13.35663716276135	0.4718487842133923	149.9450884685784
17825.50048828125	13.25076261171849	-1.50832032158661	149.9450884685784
17834.5947265625	14.33741919248333	0.2713529763593065	149.9450884685784
17843.68896484375	14.4915431131772	0.5963704860223003	149.9450884685784
17852.783203125	13.14517654719073	-0.4919482998216912	149.9450884685784
17861.87744140625	15.25249841839056	0.3659469507943878	149.9450884685784
17870.9716796875	13.2581911394824	0.2374533563041652	149.9450884685784
17880.06591796875	14.38162975092289	-0.2378061571209312	149.9450884685784
17889.16015625	13.19623866036399	-0.457220820033546	149.9450884685784
17898.25439453125	15.18131437078886	0.5751934386219952	149.9450884685784
17907.3486328125	13.20013322831789	-0.08337705946413854	149.9450884685784
17916.44287109375	14.33201007032515	-0.1679369813514042	149.9450884685784
17925.537109375	14.39309708989824	0.2123138845418758	149.9450884685784
17934.63134765625	13.09144593375277	-0.01586191280110028	149.9450884685784
17943.7255859375	15.1302522576156	-0.3883319972088348	149.9450884685784
17952.81982421875	14.3071281083975	1.269596774472221	149.9450884685784
17961.9140625	14.3479489502846	-0.01163242576846765	149.9450884685784
17971.00830078125	13.05502451122099	-0.7437629017207317	149.9450884685784
17980.1025390625	15.1302522576156	0.4131559426240249	149.9450884685784
17989.19677734375	13.07911313523211	-0.2458027267222497	149.9450884685784
17998.291015625	14.26356664461692	-0.2392411686384935	149.9450884685784
18007.38525390625	14.30164686461054	-0.04921309504621108	149.9450884685784
18016.4794921875	13.09281624469951	0.1029318225406456	149.9450884685784
18025.57373046875	13.11524607124878	-1.684777832088009	149.9450884685784
18034.66796875	14.44581800053334	0.3416917141886231	149.9450884685784
18043.76220703125	14.42108028186325	0.6077376384031052	149.9450884685784
18052.8564453125	13.15686025105241	-0.5014429541280352	149.9450884685784
18061.95068359375	15.16890945063942	0.3223381137213501	149.9450884685784
18071.044921875	13.10421146204608	0.1652081251274716	149.9450884685784
18080.13916015625	14.33164946218127	-0.3513666995503563	149.9450884685784
18089.2333984375	13.11596728753654	-0.4185249336609573	149.9450884685784
18098.32763671875	15.09736479489384	0.5087982963481394	149.9450884685784
18107.421875	13.16306271112713	-0.08715304297755067	149.9450884685784
18116.51611328125	14.30186322949687	-0.1113926858219181	149.9450884685784
18125.6103515625	14.27467337544839	0.157452363044999	149.9450884685784
18134.70458984375	13.11351515215816	0.02847322768988847	149.9450884685784
18143.798828125	15.01247763782473	-0.3774083142022358	149.9450884685784
18152.89306640625	14.30864266260179	1.282064837570505	149.9450884685784
