Time Stamp	ECG LL-RA	ECG LL-RA Filtered	Heart Rate
100923.7365722656	6.98065244920879	0.05838725721043399	-1
100932.8308105469	6.641248064189919	-0.1220254293668572	-1
100941.9250488281	6.404112148775119	-0.4448032337037808	-1
100951.0192871094	6.404112148775119	-0.4663383239158501	-1
100960.1135253906	6.305594003867388	-0.4193221748279378	-1
100969.2077636719	6.305594003867388	-0.4755230144223816	-1
100978.3020019531	6.153633732036798	-0.4561831113671448	-1
100987.3962402344	6.047326451221282	-0.5708398535658531	-1
100996.4904785156	5.929407588172864	-0.6069893861650191	-1
101005.5847167969	5.828509429515533	-0.623693610116324	-1
101014.6789550781	5.816825725653855	-0.6316835244218371	-1
101023.7731933594	5.719822134950416	-0.5593476976212699	-1
101032.8674316406	5.677126130715148	-0.6042382580053549	-1
101041.9616699219	5.645753222197679	-0.5254728352973215	-1
101051.0559082031	5.568222471263704	-0.5089634573243316	-1
101060.1501464844	5.588560770578477	-0.4770841178387746	-1
101069.2443847656	5.562524862590416	-0.3626983152939624	-1
101078.3386230469	5.590724419441751	-0.3268666774022479	-1
101087.4328613281	5.555817551114267	-0.2352830325318744	-1
101096.5270996094	5.596638393001365	-0.1878740876732504	-1
101105.6213378906	5.554519361796303	-0.1164501981218828	-1
101114.7155761719	5.546153252858312	-0.09175651677115879	-1
101123.8098144531	5.558053321606317	-0.04069931951332515	-1
101132.9040527344	5.567861863119825	0.04902781865265814	-1
101141.9982910156	5.554591483425079	0.06491027741136476	-1
101151.0925292969	5.578535864178642	0.1367190360189899	-1
101160.1867675781	5.601398420500567	0.1932009883369906	-1
101169.2810058594	5.567573376604722	0.2282871290226049	-1
101178.3752441406	5.612793637847142	0.2582598678264835	-1
101187.4694824219	5.584017107965602	0.3120204405858781	-1
101196.5637207031	5.587334702889288	0.317834997891858	-1
101205.6579589844	5.520045223241476	0.3069342202102479	-1
101214.7521972656	5.551418131758944	0.329072321954196	-1
101223.8464355469	5.53778714392032	0.360136803379991	-1
101232.9406738281	5.537859265549096	0.3898460169219974	-1
101242.0349121094	5.545071428426675	0.3944334840469779	-1
101251.1291503906	5.514131249681861	0.4258824065024138	-1
101260.2233886719	5.557332105318559	0.4273083227151656	-1
101269.3176269531	5.536128346458477	0.4772389954235469	-1
101278.4118652344	5.551778739902823	0.09734796367558231	-1
101287.5061035156	5.529853764754983	-0.3344162561331369	-1
101296.6003417969	5.587334702889288	-0.1040805258978012	-1
101305.6945800781	5.566635795430637	-0.09833334689367913	-1
101314.7888183594	5.571612187816166	-0.1532604600271974	-1
101323.8830566406	5.573270985278009	-0.0537180018684844	-1
101332.9772949219	5.567861863119825	-0.1171627086462033	-1
101342.0715332031	5.521054926044337	-0.08178460812019706	-1
101351.1657714844	5.525670710285987	-0.1236255011325753	-1
101360.2600097656	5.534758035511737	-0.08260184803234066	-1
101369.3542480469	5.498048126464859	-0.07804966148562627	-1
101378.4484863281	5.533459846193773	-0.09765765905492183	-1
101387.5427246094	5.507784546349591	-0.03401728218599583	-1
101396.6369628906	5.545215671684226	-0.06476300937780502	-1
101405.7312011719	5.568727322665135	0.01309962764024317	-1
101414.8254394531	5.630679801783539	0.04313561900875134	-1
101423.9196777344	5.588993500351132	0.05480481959600759	-1
101433.0139160156	5.583800743079275	0.02435852526636363	-1
101442.1081542969	5.583295891677844	0.01724508845418879	-1
101451.2023925781	5.560000605583263	0.03181242124427626	-1
101460.2966308594	5.614019705536331	0.0178027756686473	-1
101469.3908691406	5.582718918647638	0.07006221533596319	-1
101478.4851074219	5.563534565393277	0.003177979787002885	-1
101487.5793457031	5.545504158199329	0.003538655172616391	-1
101496.6735839844	5.60392267750772	0.03455125256611199	-1
101505.7678222656	5.591157149214405	0.05146560071422524	-1
101514.8620605469	5.636016802312947	0.07148071500557764	-1
101523.9562988281	5.656715709771599	0.08910412993248901	-1
101533.0505371094	5.668255170375725	0.117034024614382	-1
101542.1447753906	5.632554964131709	0.06793840371489691	-1
101551.2390136719	5.645825343826455	0.06939930656321869	-1
101560.3332519531	5.648205357576056	0.06708188410991134	-1
101569.4274902344	5.615462138111846	0.0497967454303573	-1
101578.5217285156	5.661043007498146	0.04557679607714169	-1
101587.6159667969	5.636377410456826	0.0647890365686699	-1
101596.7102050781	5.66320665636142	0.0505675226703264	-1
101605.8044433594	5.682102523100677	0.06750412592643551	-1
101614.8986816406	5.712321485557734	0.1013750472502529	-1
101623.9929199219	5.621592476557789	0.03335595596811978	-1
101633.0871582031	5.526175561687418	-0.06015879899374323	-1
101642.1813964844	5.37911956061358	-0.1917714182469151	-1
101651.2756347656	5.282620821311572	-0.2843517039743619	-1
101660.3698730469	5.521127047673113	-0.1777558051502772	-1
101669.4641113281	6.450558477706728	0.5050613306323655	-1
101678.5583496094	6.187603019190195	0.8347933333647115	-1
101687.6525878906	5.884187326930443	0.2098609009828532	-1
101696.7468261719	5.799516534747665	0.06817549617882387	-1
101705.8410644531	5.680227360752506	0.05764252626433935	-1
101714.9353027344	5.672943076246152	-0.1294869913201004	-1
101724.0295410156	5.671140035526757	-0.005281669531538649	-1
101733.1237792969	5.685275874766812	-0.07888406035812183	-1
101742.2180175781	5.642579870531544	-0.06004752504144343	-1
101751.3122558594	5.651667195757294	-0.08402754307007415	-1
101760.4064941406	5.672654589731049	-0.08241358126234337	-1
101769.5007324219	5.651667195757294	-0.03935579850231303	-1
101778.5949707031	5.667750318974295	-0.1044244791911342	-1
101787.6892089844	5.619356706065739	-0.05790557519259272	-1
101796.7834472656	5.639695005380513	-0.1251467209510492	-1
101805.8776855469	5.621664598186564	-0.07772977618593133	-1
101814.9719238281	5.655273277196083	-0.08418918363828579	-1
101824.0661621094	5.608249975234267	-0.09147720467310433	-1
101833.1604003906	5.618130638376551	-0.09528538134573444	-1
101842.2546386719	5.607600880575285	-0.1130080955685967	-1
101851.3488769531	5.56519336285512	-0.09986736362344736	-1
101860.4431152344	5.594763230653195	-0.1448377749959716	-1
101869.5373535156	5.583007405162741	-0.07531861382652898	-1
101878.6315917969	5.592383216903594	-0.1105122747548911	-1
101887.7258300781	5.573343106906785	-0.09147406559279762	-1
101896.8200683594	5.635511950911517	-0.062177818242654	-1
101905.9143066406	5.623900368678614	-0.03798510003100949	-1
101915.0085449219	5.672005495072066	-0.00763758841457496	-1
101924.1027832031	5.692271672758064	0.007667236302685721	-1
101933.1970214844	5.681958279843125	0.03633193429985366	-1
101942.2912597656	5.707128728285877	0.00235806352795119	-1
101951.3854980469	5.726745811312892	0.06201164880014926	-1
101960.4797363281	5.726457324797789	0.04124873981945399	-1
101969.5739746094	5.701286876355038	0.02774459052330459	-1
101978.6682128906	5.753286570702383	0.04305540382826606	-1
101987.7624511719	5.713042701845492	0.04317457887032434	-1
101996.8566894531	5.745497434794597	0.03567193379789889	-1
102005.9509277344	5.730424014380457	0.03380808255647155	-1
102015.0451660156	5.775067302592672	0.06315867935134611	-1
102024.1394042969	5.743261664302548	0.04280514190529	-1
102033.2336425781	5.774634572820017	0.05386718789900048	-1
102042.3278808594	5.779106113804116	0.05504942241912607	-1
102051.4221191406	5.754152030247693	0.05122130937010364	-1
102060.5163574219	5.80095896732318	0.04022027748652563	-1
102069.6105957031	5.786029790166592	0.07368939508082367	-1
102078.7048339844	5.772326680699192	0.03649370802948464	-1
102087.7990722656	5.741025893810498	0.003525174100524636	-1
102096.8933105469	5.784154627818421	0.02940448334988999	-1
102105.9875488281	5.75213262464197	0.01679335501932059	-1
102115.0817871094	5.792304371870086	0.03087892116464638	-1
102124.1760253906	5.806512332738916	0.04513445228986366	-1
102133.2702636719	5.790573452779467	0.0538678009203309	-1
102142.3645019531	5.790717696037018	0.01588894049047778	-1
102151.4587402344	5.829447010689618	0.0566791443876776	-1
102160.5529785156	5.832692483984529	0.06805419074906988	-1
102169.6472167969	5.799011683346234	0.03501736621726857	-1
102178.7414550781	5.83370218678739	0.03896804109597885	-1
102187.8356933594	5.7845152359623	0.02787226660068838	-1
102196.9299316406	5.805286265049728	0.00856122160242279	-1
102206.0241699219	5.76944181554816	-0.001227287816846857	-1
102215.1184082031	5.806945062511571	0.009298048780963891	-1
102224.2126464844	5.771966072555313	-0.0002809662587808095	-1
102233.3068847656	5.809613562776275	0.01083715588263177	-1
102242.4011230469	5.809685684405051	0.02209622256760589	-1
102251.4953613281	5.796920156111736	0.02263081746154205	-1
102260.5895996094	5.844448309474982	0.02381706642602745	-1
102269.6838378906	5.810695387207912	0.04977016937475171	-1
102278.7780761719	5.848919850459081	0.02773633131741687	-1
102287.8723144531	5.826634267167362	0.04463068229037397	-1
102296.9665527344	5.864065392501997	0.05220293941780251	-1
102306.0607910156	5.805791116451158	0.0232100992807872	-1
102315.1550292969	5.817402698684061	0.01282686008573965	-1
102324.2492675781	5.809036589746069	-0.00099177337990017	-1
102333.3435058594	5.797641372399494	0.01522818483468028	-1
102342.4377441406	5.822090604554488	-0.005358762196949479	-1
102351.5319824219	5.871854528409783	0.0633128772257385	-1
102360.6262207031	5.88663946230882	0.07957890437243864	-1
102369.7204589844	5.876037582878778	0.06742413899418109	-1
102378.8146972656	5.927676669082245	0.0927849165665036	-1
102387.9089355469	5.894067990072727	0.08970329706829092	-1
102397.0031738281	5.926234236506729	0.08364168651309459	-1
102406.0974121094	5.897457706625189	0.07362568419553152	-1
102415.1916503906	5.914983262417706	0.07367103058301672	-1
102424.2858886719	5.865147216933634	0.0365010209660963	-1
102433.3801269531	5.901496517836633	0.0416713925338618	-1
102442.4743652344	5.893995868443951	0.04956543259019805	-1
102451.5686035156	5.8825285294686	0.0415904000407742	-1
102460.6628417969	5.91217051889545	0.03761524110316706	-1
102469.7570800781	5.819566347547335	0.01759214754633079	-1
102478.8513183594	5.623539760534735	-0.1571866242858666	-1
102487.9455566406	5.563173957249398	-0.276670554141385	-1
102497.0397949219	5.829879740462273	-0.08850630473065646	-1
102506.1340332031	6.417238285212313	0.3860413923701635	-1
102515.2282714844	6.789169524809066	0.8666801356787585	-1
102524.3225097656	6.474502858460291	0.7143284915456583	-1
102533.4167480469	6.187530897561419	0.2540218171650066	-1
102542.5109863281	5.963881726727692	0.03686847089076501	-1
102551.6052246094	5.972896930324666	-0.05097250783177081	-1
102560.6994628906	5.952847117524996	-0.03412323044354035	-1
102569.7937011719	5.917507519424858	-0.05487632420714885	-1
102578.8879394531	5.940225832489233	-0.08565636182419247	-1
102587.9821777344	5.886927948823924	-0.05871189473714285	-1
102597.0764160156	5.912026275637898	-0.1068721022081551	-1
102606.1706542969	5.875965461250003	-0.0787204447431677	-1
102615.2648925781	5.908131707684006	-0.08413735044208044	-1
102624.3591308594	5.861324770608517	-0.09206743630292608	-1
102633.4533691406	5.884115205301668	-0.0831407307710752	-1
102642.5476074219	5.855699283564006	-0.09987303344588702	-1
102651.6418457031	5.817186333797734	-0.1011789691771329	-1
102660.7360839844	5.826994875311241	-0.1385633622738385	-1
102669.8303222656	5.763599963617321	-0.1160343152461983	-1
102678.9245605469	5.765619369223043	-0.1683323083457778	-1
102688.0187988281	5.746579259226234	-0.1387632027653849	-1
102697.1130371094	5.815455414707115	-0.0945515518609773	-1
102706.2072753906	5.805646873193607	-0.06414292358008966	-1
102715.3015136719	5.850218039777046	-0.02367880012656833	-1
102724.3957519531	5.823028185728573	-0.03475245268767483	-1
102733.4899902344	5.824686983190416	-0.01705255402795539	-1
102742.5842285156	5.829519132318394	-0.03418292491062087	-1
102751.6784667969	5.864137514130773	0.02377895686499411	-1
102760.7727050781	5.853319269814405	0.0191846806046083	-1
102769.8669433594	5.858800513601365	0.0226647716671725	-1
102778.9611816406	5.904958356017871	0.05739971448558073	-1
102788.0554199219	5.858512027086261	0.05454445004365988	-1
102797.1496582031	5.889884935603731	0.04276063397745176	-1
102806.2438964844	5.88115821852186	0.05873186097616975	-1
102815.3381347656	5.928325763741227	0.09001937072733141	-1
102824.4323730469	5.906617153479714	0.08342987339265148	-1
102833.5266113281	5.957607145024198	0.1120446399916864	-1
102842.6208496094	5.960564131804006	0.1226848143119233	-1
102851.7150878906	5.953351968926427	0.1254694402247155	-1
102860.8093261719	5.984075782784913	0.114440615838159	-1
102869.9035644531	5.9418125083223	0.1228489459701765	-1
102878.9978027344	5.951765293093359	0.08109753654608554	-1
102888.0920410156	5.945995562791296	0.09102336089549534	-1
102897.1862792969	5.980397579717348	0.1116816653726415	-1
102906.2805175781	5.939071886428819	0.08439505219997609	-1
102915.3747558594	5.975926038733249	0.09418509504926427	-1
102924.4689941406	5.958905334342163	0.08766278541581067	-1
102933.5632324219	5.951909536350911	0.0850378029285791	-1
102942.6574707031	5.940081589231681	0.05173118271317128	-1
102951.7517089844	5.968064781196688	0.08016447764582732	-1
102960.8459472656	5.944913738359659	0.06925727076827917	-1
102969.9401855469	5.940009467602906	0.04809302891215093	-1
102979.0344238281	5.986167310019411	0.07616052144293425	-1
102988.1286621094	5.9555156177897	0.08013596966523343	-1
102997.2229003906	5.993956445927196	0.07224911600260858	-1
103006.3171386719	5.975781795475697	0.08256149873772635	-1
103015.4113769531	6.004197717213359	0.08572027389976977	-1
103024.5056152344	5.962439294152176	0.06169333244008022	-1
103033.5998535156	5.994821905472506	0.06471119631380351	-1
103042.6940917969	5.974772092672836	0.05863848892916813	-1
103051.7883300781	5.96784841631036	0.04992581939764255	-1
103060.8825683594	5.997346162479659	0.04573059705058238	-1
103069.9768066406	5.953207725668875	0.0539400106435489	-1
103079.0710449219	5.97556543058937	0.01668329534043771	-1
103088.1652832031	5.982056377179191	0.04734874051021717	-1
103097.2595214844	6.022372367664858	0.07067280164283665	-1
103106.3537597656	5.981551525777761	0.04840233119004424	-1
103115.4479980469	6.016530515734019	0.05370821219465895	-1
103124.5422363281	5.994317054071075	0.04408711878721523	-1
103133.6364746094	5.989989756344528	0.04002157110236426	-1
103142.7307128906	6.01703536713545	0.02937987790241986	-1
103151.8249511719	6.010111690772974	0.06230703628905097	-1
103160.9191894531	5.991792797063923	0.01825672200659727	-1
103170.0134277344	5.988330958882685	0.01318610933496159	-1
103179.1076660156	6.013789893840539	0.03001234475021862	-1
103188.2019042969	5.975781795475697	0.009734259724957145	-1
103197.2961425781	6.011770488234817	0.01288677748738305	-1
103206.3903808594	5.991576432177595	0.01449166748713184	-1
103215.4846191406	6.025978449103648	0.02672929750698008	-1
103224.5788574219	5.989629148200649	0.009820940885939431	-1
103233.6730957031	6.024896624672011	0.01617827226828589	-1
103242.7673339844	6.005495906531324	0.01452768354126166	-1
103251.8615722656	6.006649852591736	0.00754508282296438	-1
103260.9558105469	6.028502706110801	0.008067835889001729	-1
103270.0500488281	5.989629148200649	0.009383188203774364	-1
103279.1442871094	6.014727475014625	-0.01792553298109751	-1
103288.2385253906	6.011193515204611	0.006818546295958404	-1
103297.3327636719	6.03571486898838	0.01421044694543414	-1
103306.4270019531	5.999437689714156	-0.008301374828878222	-1
103315.5212402344	6.037734274594102	0.004215191812565539	-1
103324.6154785156	6.001745581834983	-0.008681120306768536	-1
103333.7097167969	5.978378174111626	-0.03278881893178147	-1
103342.8039550781	5.939216129686371	-0.08044734352725616	-1
103351.8981933594	5.808026886943208	-0.1457965971159016	-1
103360.9924316406	5.99886071668395	-0.1247369376205671	-1
103370.0866699219	6.546840852122409	0.334035812140897	-1
103379.1809082031	6.954472297963179	0.8109150283842914	-1
103388.2751464844	6.628121927752726	0.6726314683875772	-1
103397.3693847656	6.359396738934128	0.2185991411682774	-1
103406.4636230469	6.180895707714046	0.01533384744369404	-1
103415.5578613281	6.068025358679934	-0.0906367733888466	-1
103424.6520996094	6.012058974749921	-0.2109678550186971	-1
103433.7463378906	6.035065774329397	-0.158204935543784	-1
103442.8405761719	6.004269838842135	-0.1864105854542071	-1
103451.9348144531	6.001096487176	-0.1867305992118461	-1
103461.0290527344	6.023526313725271	-0.1687471470983474	-1
103470.1232910156	5.988403080511461	-0.1702723126036056	-1
103479.2175292969	6.000591635774569	-0.1763663538933825	-1
103488.3117675781	5.999437689714156	-0.1666849568558907	-1
103497.4060058594	6.022949340695065	-0.1322020633289973	-1
103506.5002441406	5.98328244486838	-0.1582671865808667	-1
103515.5944824219	6.011049271947059	-0.1414156956995234	-1
103524.6887207031	5.977801201081419	-0.1473813505273492	-1
103533.7829589844	5.968858119113222	-0.1560922910167771	-1
103542.8771972656	5.982633350209397	-0.152206247609578	-1
103551.9714355469	5.965179916045656	-0.13180062934745	-1
103561.0656738281	5.931715480293689	-0.1657205660773019	-1
103570.1599121094	5.925368776961419	-0.1732777915767346	-1
103579.2541503906	5.937485210595752	-0.1457102939074805	-1
103588.3483886719	5.903588045071131	-0.1590870696986011	-1
103597.4426269531	5.939865224345354	-0.1394113701391068	-1
103606.5368652344	5.926306358135505	-0.1184971233182204	-1
103615.6311035156	5.969939943544858	-0.09224808065026331	-1
103624.7253417969	5.951909536350911	-0.0772309654274756	-1
103633.8195800781	6.005495906531324	-0.05000723758204471	-1
103642.9138183594	5.995398878502712	-0.0266490116195897	-1
103652.0080566406	6.006145001190306	-0.02475401666351552	-1
103661.1022949219	6.03347909849633	-0.009804809724532779	-1
103670.1965332031	6.003115892781723	0.001488457242494096	-1
103679.2907714844	6.036147598761034	-0.01596103300484827	-1
103688.3850097656	6.029800895428765	0.01619719236887561	-1
103697.4792480469	6.054466492470085	0.01825673819543405	-1
103706.5734863281	6.018766286226069	0.003838775407154571	-1
103715.6677246094	6.057784087393771	0.01554363356446101	-1
103724.7619628906	6.040907626260236	0.01695776217404739	-1
103733.8562011719	6.048119789137815	0.02122217403966593	-1
103742.9504394531	6.07033325080076	0.0186987622583176	-1
103752.0446777344	6.071126588717293	0.05048016112430058	-1
103761.1389160156	6.044153099555147	0.01009691903707853	-1
103770.2331542969	6.051076775917623	0.006570658776023558	-1
103779.3273925781	6.070910223830966	0.02710971051097192	-1
103788.4216308594	6.037373666450223	0.009328162696412179	-1
103797.5158691406	6.076679954133029	0.01371421369232339	-1
103806.6101074219	6.042350058835752	0.0164677346122782	-1
103815.7043457031	6.068241723566262	0.009369506375173182	-1
103824.7985839844	6.035210017586949	0.0003845316145392498	-1
103833.8928222656	6.077329048792011	0.01369571399829342	-1
103842.9870605469	6.049273735198228	0.01153754433050222	-1
103852.0812988281	6.057567722507444	0.005831561122483535	-1
103861.1755371094	6.069972642656881	0.00663802265258465	-1
103870.2697753906	6.035354260844501	0.008443543186458659	-1
103879.3640136719	6.072496899664033	-0.01051452611462802	-1
103888.4582519531	6.044008856297595	0.01426374586659586	-1
103897.5524902344	6.059154398340511	-0.006315352514734239	-1
103906.6467285156	6.023959043497926	-0.01872146901818349	-1
103915.7409667969	6.062471993264198	-0.002715749054669396	-1
103924.8352050781	6.029079679141007	-0.01438752314738912	-1
103933.9294433594	6.043720369782492	-0.008918562752197828	-1
103943.0236816406	6.060668952544803	-0.008311888543717784	-1
103952.1179199219	6.058433182052753	0.02220843306017908	-1
103961.2121582031	6.020641448574239	-0.02642217562662874	-1
103970.3063964844	6.037517909707774	-0.02356464995448422	-1
103979.4006347656	6.063770182582163	0.00798795365197671	-1
103988.4948730469	6.040979747889012	0.001094194900745762	-1
103997.5891113281	6.095431577614734	0.01832640805798674	-1
104006.6833496094	6.06312108792318	0.03022451447849024	-1
104015.7775878906	6.07631934598915	0.01323738808804738	-1
104024.8718261719	6.044585829327802	-0.003624111486550408	-1
104033.9660644531	6.088075171479604	0.01710085949461338	-1
104043.0603027344	6.044585829327802	0.003911451347997244	-1
104052.1545410156	6.061318047203785	-0.004585597897067468	-1
104061.2487792969	6.076463589246702	0.007139455868613127	-1
104070.3430175781	6.044802194214129	0.01025428961737951	-1
104079.4372558594	6.099975240227609	0.001010872842206915	-1
104088.5314941406	6.088363657994707	0.04718186026852324	-1
104097.6257324219	6.100768578144143	0.02646451879870968	-1
104106.7199707031	6.067664750536055	0.008808095906703988	-1
104115.8142089844	6.116491093217265	0.03113899795585141	-1
104124.9084472656	6.07307387269424	0.0163120929059497	-1
104134.0026855469	6.084396968412039	0.008938215447997173	-1
104143.0969238281	6.093340050380236	0.003869683206686583	-1
104152.1911621094	6.099903118598833	0.0345350800571058	-1
104161.2854003906	6.054394370841309	-0.01501479263388331	-1
104170.3796386719	6.060668952544803	-0.02351399969113108	-1
104179.4738769531	6.073290237580567	-0.007486936879122799	-1
104188.5681152344	6.044730072585353	-0.01914490780678704	-1
104197.6623535156	6.05814469553765	-0.02681103527015444	-1
104206.7565917969	5.931715480293689	-0.08413966839610615	-1
104215.8508300781	5.835360984249233	-0.2004532461032395	-1
104224.9450683594	5.844159822959879	-0.2234432674337338	-1
104234.0393066406	6.418897082674156	0.1465970943070911	-1
104243.1335449219	6.872037276272449	0.7027901659449384	-1
104252.2277832031	6.682068906077016	0.7057077772721723	-1
104261.3220214844	6.386514471353826	0.2577952487681012	-1
104270.4162597656	6.198565506764115	0.06124263795466046	-1
104279.5104980469	6.149234312681474	-0.0522987223781363	-1
104288.6047363281	6.069900521028105	-0.1020489255023577	-1
104297.6989746094	6.074876913413634	-0.123112861249486	-1
104306.7932128906	6.037662152965326	-0.145038921305353	-1
104315.8874511719	6.081439981632231	-0.1085392831302939	-1
104324.9816894531	6.034272436412864	-0.1283753593491895	-1
104334.0759277344	6.055764681788049	-0.1171552832985612	-1
104343.1701660156	6.06672716936197	-0.1086697888141456	-1
104352.2644042969	6.07357872409567	-0.07347205652758249	-1
104361.3586425781	6.026771787020182	-0.1133803131617069	-1
104370.4528808594	6.044008856297595	-0.1145038893236268	-1
104379.5471191406	6.04804766750904	-0.08533365950362737	-1
104388.6413574219	6.00383710906948	-0.1123944525491578	-1
104397.7355957031	6.037662152965326	-0.1061899471740164	-1
104406.8298339844	5.980253336459796	-0.1058304221535314	-1
104415.9240722656	5.990855215889837	-0.1269380177200727	-1
104425.0183105469	5.950755590290498	-0.1314644884468171	-1
104434.1125488281	5.992586134980456	-0.1074626244519954	-1
104443.2067871094	5.948880427942328	-0.1065749647584941	-1
104452.3010253906	5.972319957294459	-0.09453244588226575	-1
104461.3952636719	5.986816404678393	-0.0698614770973626	-1
104470.4895019531	5.964963551159329	-0.04890922944037209	-1
104479.5837402344	6.029079679141007	-0.03782058962353881	-1
104488.6779785156	6.051221019175174	0.04078074961029007	-1
104497.7722167969	6.069612034513002	0.04874589918888804	-1
104506.8664550781	6.049273735198228	0.04018739749019595	-1
104515.9606933594	6.101922524204555	0.07630632485844449	-1
104525.0549316406	6.062976844665628	0.06978181891910099	-1
104534.1491699219	6.090671550115532	0.07362303473971471	-1
104543.2434082031	6.097018253447802	0.08241645010751769	-1
104552.3376464844	6.067664750536055	0.08721576584392553	-1
104561.4318847656	6.06622231796054	0.04504796879365998	-1
104570.5261230469	6.092618834092479	0.0876587948779031	-1
104579.6203613281	6.099181902311075	0.09764369853453984	-1
104588.7145996094	6.071126588717293	0.07757645184757274	-1
104597.8088378906	6.117212309505023	0.09565428856347301	-1
104606.9030761719	6.072857507807912	0.09353545961785557	-1
104615.9973144531	6.099758875341282	0.08346771136507658	-1
104625.0915527344	6.065284736786454	0.07631590262416232	-1
104634.1857910156	6.103437078408847	0.09036852612061465	-1
104643.2800292969	6.052014357091708	0.07135972451373412	-1
104652.3742675781	6.080502400458146	0.06970892667330872	-1
104661.4685058594	6.088580022881034	0.08550366018364417	-1
104670.5627441406	6.066366561218091	0.08948546203272559	-1
104679.6569824219	6.113894714581337	0.08321216048883097	-1
104688.7512207031	6.100407970000264	0.1245402794460569	-1
104697.8454589844	6.103581321666399	0.09802607451552922	-1
104706.9396972656	6.08677698216164	0.08872137889930487	-1
104716.0339355469	6.143392460750635	0.1250264304612698	-1
104725.1281738281	6.109855903369892	0.1184693799720348	-1
104734.2224121094	6.1446906500686	0.1250495115504566	-1
104743.3166503906	6.146782177303098	0.1292549463505433	-1
104752.4108886719	6.125289931927911	0.1302511027756136	-1
104761.5051269531	6.133656040865904	0.09419554384005462	-1
104770.5993652344	6.161062259800704	0.1370968805408248	-1
104779.6936035156	6.154571313210883	0.1312982739276162	-1
104788.7878417969	6.124135985867499	0.09950051456674419	-1
104797.8820800781	6.162288327489892	0.1099213228545732	-1
104806.9763183594	6.105384362385793	0.09365192324207949	-1
104816.0705566406	6.132429973176715	0.07422171220678575	-1
104825.1647949219	6.100696456515367	0.0708571896798713	-1
104834.2590332031	6.14793612336351	0.08777445832073447	-1
104843.3532714844	6.09961463208373	0.07280851764776025	-1
104852.4475097656	6.135819689729178	0.07328103599649721	-1
104861.5417480469	6.141445176773689	0.08734723057986171	-1
104870.6359863281	6.121755972117898	0.08835122561715339	-1
104879.7302246094	6.170005341768902	0.07949659383794724	-1
104888.8244628906	6.129905716169563	0.1058620485348526	-1
104897.9187011719	6.164307733095614	0.07489314549811352	-1
104907.0129394531	6.1309875406012	0.08330046201351327	-1
104916.1071777344	6.175486585555862	0.09030612535616961	-1
104925.2014160156	6.133800284123455	0.07313253571023259	-1
104934.2956542969	6.162360449118668	0.08162832172257903	-1
104943.3898925781	6.158249516278448	0.06919917014140189	-1
104952.4841308594	6.135170595070195	0.07792215743322245	-1
104961.5783691406	6.128823891737926	0.02728388038881636	-1
104970.6726074219	6.164163489838063	0.07180603682414441	-1
104979.7668457031	6.15702344858926	0.0744032904099302	-1
104988.8610839844	6.129184499881805	0.04175379048427162	-1
104997.9553222656	6.161927719346013	0.05395646616174102	-1
105007.0495605469	6.047542816107609	0.01648752129296909	-1
105016.1437988281	5.961790199493194	-0.07562782577785501	-1
105025.2380371094	5.851444107466234	-0.1707909086352932	-1
105034.3322753906	6.307901895988214	0.06380817730251409	-1
105043.4265136719	6.971132394210386	0.7003642939068675	-1
105052.5207519531	6.933989755390853	0.9472555753176575	-1
105061.6149902344	6.562274880680429	0.4761158914974798	-1
105070.7092285156	6.332062641628104	0.1653580596880693	-1
105079.8034667969	6.245011835695724	0.046953210274812	-1
105088.8977050781	6.145411866356358	-0.05195064997589696	-1
105097.9919433594	6.147719758477183	-0.07290728497594001	-1
105107.0861816406	6.123847499352396	-0.08498158046467211	-1
105116.1804199219	6.16849078756461	-0.04712430705776374	-1
105125.2746582031	6.113029255036027	-0.06675282265027432	-1
105134.3688964844	6.143969433780842	-0.06503494793806154	-1
105143.4631347656	6.130410567570993	-0.05345163810308699	-1
105152.5573730469	6.108052862650498	-0.05945817558126033	-1
105161.6516113281	6.092113982691048	-0.08811530460230974	-1
105170.7458496094	6.122693553291983	-0.05461885372782251	-1
105179.8400878906	6.091609131289618	-0.04977789340203879	-1
105188.9343261719	6.067304142392176	-0.08566637481083375	-1
105198.0285644531	6.099398267197403	-0.05795208735865588	-1
105207.1228027344	6.037229423192671	-0.06704192074182401	-1
105216.2170410156	6.059875614628269	-0.08694490911125496	-1
105225.3112792969	6.002755284637844	-0.08419561305233053	-1
105234.4055175781	6.03347909849633	-0.08831218122471936	-1
105243.4997558594	5.98652791816329	-0.08553443324634069	-1
105252.5939941406	6.028502706110801	-0.06892902578213414	-1
105261.6882324219	6.020713570203015	-0.04699373457536417	-1
105270.7824707031	6.023454192096495	-0.0294671638506638	-1
105279.8767089844	6.090599428486756	-0.002373360437957706	-1
105288.9709472656	6.065501101672782	0.0507162732936865	-1
105298.0651855469	6.125217810299136	0.03968268796136993	-1
105307.1594238281	6.129905716169563	0.09416741762961364	-1
105316.2536621094	6.18493451892549	0.1202332264062738	-1
105325.3479003906	6.142815487720429	0.1057872568663319	-1
105334.4421386719	6.188468478735505	0.1201848433820889	-1
105343.5363769531	6.178804180479548	0.116744313136452	-1
105352.6306152344	6.162071962603565	0.1192524165735677	-1
105361.7248535156	6.15889861093743	0.07374402980962511	-1
105370.8190917969	6.204767966838833	0.126448234507957	-1
105379.9133300781	6.200945520513717	0.1283729984262698	-1
105389.0075683594	6.190415762712451	0.1195986367697857	-1
105398.1018066406	6.226188090585243	0.1478123318316636	-1
105407.1960449219	6.179309031880979	0.1289727904442199	-1
105416.2902832031	6.215297724640099	0.1182896365737445	-1
105425.3845214844	6.199142479794322	0.1281951383914393	-1
105434.4787597656	6.226548698729122	0.1354145848301243	-1
105443.5729980469	6.176784774873826	0.1041907158509243	-1
105452.6672363281	6.211835886458861	0.1064062026789679	-1
105461.7614746094	6.198421263506564	0.1082399057696637	-1
105470.8557128906	6.182842991690992	0.09796035977011799	-1
105479.9499511719	6.212629224375394	0.0881912239303895	-1
105489.0441894531	6.164451976353166	0.09715899463407202	-1
105498.1384277344	6.1857999784708	0.05884841158411885	-1
105507.2326660156	6.170582314799108	0.07681944057770739	-1
105516.3269042969	6.203614020778421	0.08801246201735516	-1
105525.4211425781	6.156230110672726	0.06307108137339865	-1
105534.5153808594	6.188973330136935	0.07054390460265025	-1
105543.6096191406	6.167048354989094	0.06077640088449261	-1
105552.7038574219	6.158105273020897	0.06138250487247991	-1
105561.7980957031	6.142527001205326	0.02600229269682718	-1
105570.8923339844	6.185655735213248	0.06644510167078474	-1
105579.9865722656	6.171303531086866	0.07145362841454202	-1
105589.0808105469	6.159619827225188	0.05058936271660207	-1
105598.1750488281	6.186809681273661	0.06353425391879938	-1
105607.2692871094	6.143969433780842	0.05503836830481799	-1
105616.3635253906	6.188684843621832	0.05064597053404134	-1
105625.4577636719	6.17397203135157	0.07223703087976421	-1
105634.5520019531	6.209167386194157	0.08197381876315282	-1
105643.6462402344	6.1652453142697	0.06217196901143256	-1
105652.7404785156	6.209383751080484	0.07215767628732195	-1
105661.8347167969	6.189694546424693	0.07408723192557042	-1
105670.9289550781	6.185150883811818	0.06691409665368731	-1
105680.0231933594	6.223231103805436	0.06741511890081584	-1
105689.1174316406	6.171519895973193	0.07964604367242748	-1
105698.2116699219	6.177433869532808	0.02408038686179285	-1
105707.3059082031	6.17123140945809	0.04326066032861493	-1
105716.4001464844	6.204046750551076	0.06075282855776615	-1
105725.4943847656	6.161999840974789	0.03703992804938207	-1
105734.5886230469	6.210104967368242	0.05469051322111678	-1
105743.6828613281	6.185223005440593	0.0519875436438987	-1
105752.7770996094	6.180679342827719	0.04629562217931228	-1
105761.8713378906	6.222654130775229	0.04478770131830479	-1
105770.9655761719	6.205489183126591	0.08489791431531882	-1
105780.0598144531	6.180174491426288	0.02489061038352863	-1
105789.1540527344	6.178010842563015	0.02282058927931829	-1
105798.2482910156	6.206282521043125	0.04522959630696835	-1
105807.3425292969	6.157167691846811	0.01857910872378183	-1
105816.4367675781	6.195031546954102	0.01997893200759535	-1
105825.5310058594	6.166904111731543	0.0201189204728088	-1
105834.6252441406	6.186449073129782	0.03284864611994502	-1
105843.7194824219	6.081007251859576	-0.01613504127710346	-1
105852.8137207031	6.025185111187114	-0.09038831518316856	-1
105861.9079589844	5.875749096363675	-0.1888671383486217	-1
105871.0021972656	5.904309261358889	-0.214645520355421	-1
105880.0964355469	6.271841081600319	0.03547338628306203	-1
105889.1906738281	6.876869425400428	0.593807743105348	-1
105898.2849121094	6.603600573968956	0.6764478297499752	-1
105907.3791503906	6.375768348666234	0.206607807265052	-1
105916.4733886719	6.288717542733854	0.108110101096784	-1
105925.5676269531	6.180967829342822	0.05278856315866889	-1
105934.6618652344	6.206571007558228	-0.04578268761068782	-1
105943.7561035156	6.176568409987499	0.03613231155119037	-1
105952.8503417969	6.182410261918338	-0.03041759955816446	-1
105961.9445800781	6.211547399943758	0.01696556789181992	-1
105971.0388183594	6.202460074718008	0.03692001809786834	-1
105980.1330566406	6.168274422678283	-0.02056321747400478	-1
105989.2272949219	6.157167691846811	-0.006714017901285532	-1
105998.3215332031	6.172024747374624	-0.02659043000654079	-1
106007.4157714844	6.110000146627444	-0.01858558409805799	-1
106016.5100097656	6.147214907075752	-0.05688038292867965	-1
106025.6042480469	6.107259524733964	-0.02042200827763596	-1
106034.6984863281	6.116635336474817	-0.04690003342600263	-1
106043.7927246094	6.075742372958944	-0.05842758421601811	-1
106052.8869628906	6.110793484543978	-0.03444276934981572	-1
106061.9812011719	6.069107183111571	-0.05124177279339624	-1
106071.0754394531	6.06672716936197	-0.04498959002789137	-1
106080.1696777344	6.097523104849232	-0.04428843024937721	-1
106089.2639160156	6.05540407364417	-0.009178210365756268	-1
106098.3581542969	6.06809748030871	-0.05614671786165813	-1
106107.4523925781	6.082016954662437	-0.003743284976526598	-1
106116.5466308594	6.128968134995477	0.02987242511895352	-1
106125.6408691406	6.110360754771323	0.03566571239187197	-1
106134.7351074219	6.175486585555862	0.07433706572300786	-1
106143.8293457031	6.165533800784803	0.08797759084196453	-1
106152.9235839844	6.182121775403235	0.1021074896727414	-1
106162.0178222656	6.213927413693359	0.1011270048184967	-1
106171.1120605469	6.225755360812588	0.1493881236593754	-1
106180.2062988281	6.198060655362685	0.1022198762883539	-1
106189.3005371094	6.203037047748214	0.0985619170965443	-1
106198.3947753906	6.226548698729122	0.1130642694950173	-1
106207.4890136719	6.182770870062217	0.091816031305687	-1
106216.5832519531	6.220634725169507	0.08494861615971611	-1
106225.6774902344	6.186881802902437	0.08574952406202643	-1
106234.7717285156	6.209888602481914	0.07913460023053962	-1
106243.8659667969	6.169644733625023	0.05614001981249933	-1
106252.9602050781	6.209239507822932	0.06907176513740136	-1
106262.0544433594	6.177866599305463	0.05815552335131879	-1
106271.1486816406	6.187891505705298	0.05467197033445234	-1
106280.2429199219	6.214360143466013	0.06054655271575964	-1
106289.3371582031	6.176640531616275	0.0683557756936089	-1
106298.4313964844	6.218975927707664	0.04404678405476686	-1
106307.5256347656	6.196690344415945	0.07751512281060531	-1
106316.6198730469	6.219408657480319	0.06988334137742888	-1
106325.7141113281	6.180030248168737	0.05069968794710297	-1
106334.8083496094	6.221355941457265	0.06778699744202048	-1
106343.9025878906	6.194093965780017	0.05716705197729083	-1
106352.9968261719	6.205921912899246	0.0651580583336369	-1
106362.0910644531	6.225106266153606	0.05955601934789885	-1
106371.1853027344	6.225755360812588	0.0935421580130727	-1
106380.2795410156	6.193733357636138	0.04720301840271877	-1
106389.3737792969	6.200584912369838	0.0436179627125398	-1
106398.4680175781	6.223014738919108	0.06617858327451909	-1
106407.5622558594	6.185583613584472	0.04748977988705782	-1
106416.6564941406	6.227053550130552	0.05202579511591148	-1
106425.7507324219	6.197483682332479	0.05747207106426053	-1
106434.8449707031	6.234986929295889	0.0622697354153274	-1
106443.9392089844	6.202964926119439	0.05514861157377625	-1
106453.0334472656	6.25777736398904	0.07571553864280727	-1
106462.1276855469	6.229505685508929	0.07671666334048993	-1
106471.2219238281	6.240179686567746	0.06935569481718951	-1
106480.3161621094	6.253810674406371	0.0684643013657518	-1
106489.4104003906	6.208878899679053	0.06468626225055348	-1
106498.5046386719	6.245949416869809	0.03556497405050928	-1
106507.5988769531	6.220778968427059	0.06412908938817331	-1
106516.6931152344	6.235924510469975	0.0441507889322126	-1
106525.7873535156	6.19438245229512	0.02346707173419296	-1
106534.8815917969	6.237583307931818	0.04013017295937619	-1
106543.9758300781	6.201810980059026	0.02719859923366873	-1
106553.0700683594	6.213134075776825	0.02933263959447029	-1
106562.1643066406	6.232318429031185	0.02612500904523711	-1
106571.2585449219	6.245660930354706	0.06847558967215481	-1
106580.3527832031	6.211763764830085	0.0271031861960974	-1
106589.4470214844	6.227702644789535	0.02609194340466655	-1
106598.5412597656	6.243857889635311	0.04896504504833026	-1
106607.6354980469	6.204263115437403	0.02524669468322592	-1
106616.7297363281	6.249339133422271	0.02887906450501043	-1
106625.8239746094	6.214504386723565	0.03732215032847765	-1
106634.9182128906	6.24147787588571	0.02866518702485517	-1
106644.0124511719	6.204046750551076	0.01639579694593242	-1
106653.1066894531	6.243064551718778	0.02840239641181756	-1
106662.2009277344	6.208518291535174	0.01792343852687699	-1
106671.2951660156	6.217028643730718	0.01382256357205432	-1
106680.3894042969	6.169933220140126	-0.01854964148609249	-1
106689.4836425781	6.027709368194267	-0.1053570578422569	-1
106698.5778808594	5.950467103775395	-0.2285677041370534	-1
106707.6721191406	6.347063940413468	-0.002776952261212773	-1
106716.7663574219	7.018372061058529	0.6157448323089632	-1
106725.8605957031	6.99248039632802	0.8582233417770959	-1
106734.9548339844	6.682429514220895	0.4643482364902317	-1
106744.0490722656	6.422575285741721	0.1310325034558848	-1
106753.1433105469	6.311075247654348	-0.002537925307842019	-1
106762.2375488281	6.258570701905573	-0.1038566503583902	-1
106771.3317871094	6.23873725399223	-0.08931656201906971	-1
106780.4260253906	6.191858195287967	-0.1485197467457066	-1
106789.5202636719	6.204190993808627	-0.1404125503241326	-1
106798.6145019531	6.208518291535174	-0.1210950924511563	-1
106807.7087402344	6.171664139230745	-0.1389398412308325	-1
106816.8029785156	6.214215900208462	-0.1247381780721314	-1
106825.8972167969	6.171303531086866	-0.115221995079401	-1
106834.9914550781	6.182915113319768	-0.1275250719044367	-1
106844.0856933594	6.145916717757788	-0.1312420391167709	-1
106853.1799316406	6.181833288888131	-0.09722870144185467	-1
106862.2741699219	6.129545108025684	-0.1135458442715884	-1
106871.3684082031	6.130482689199769	-0.1194372007998816	-1
106880.4626464844	6.128607526851599	-0.114918759915351	-1
106889.5568847656	6.085767279358779	-0.1113095771432672	-1
106898.6511230469	6.117068066247471	-0.1230753925121235	-1
106907.7453613281	6.079564819284061	-0.09056958695103022	-1
106916.8395996094	6.084829698184693	-0.1086999016025352	-1
106925.9338378906	6.05626953318948	-0.1075640769784765	-1
106935.0280761719	6.10733164636274	-0.06503719175759581	-1
106944.1223144531	6.077329048792011	-0.0591195088608473	-1
106953.2165527344	6.108990443824583	-0.03344914499800284	-1
106962.3107910156	6.136613027645711	-0.008764682600741005	-1
106971.4050292969	6.187026046159988	0.06123412336225925	-1
106980.4992675781	6.163370151921529	0.05345345074787104	-1
106989.5935058594	6.199070358165546	0.06632902796014695	-1
106998.6877441406	6.213494683920704	0.09866877187498498	-1
107007.7819824219	6.190127276197348	0.08618964105451341	-1
107016.8762207031	6.242487578688571	0.09910617253267122	-1
107025.9704589844	6.214143778579686	0.118982353306716	-1
107035.0646972656	6.244362741036742	0.1074214755696799	-1
107044.1589355469	6.229577807137705	0.113102196153488	-1
107053.2531738281	6.276889595614624	0.1372115578822739	-1
107062.3474121094	6.241405754256935	0.123944174582437	-1
107071.4416503906	6.268451365047857	0.1249041150205757	-1
107080.5358886719	6.271696838342767	0.1268767042828755	-1
107089.6301269531	6.23549178069732	0.1174700554172197	-1
107098.7243652344	6.282226596144032	0.09805279343163667	-1
107107.8186035156	6.250204592967581	0.1292914732285373	-1
107116.9128417969	6.253522187891268	0.08777001418339778	-1
107126.0070800781	6.224889901267279	0.07465211008679198	-1
107135.1013183594	6.267441662244996	0.09540384434466301	-1
107144.1955566406	6.227702644789535	0.07638405599980919	72.50092189689505
107153.2897949219	6.250420957853909	0.08054666197157986	72.50092189689505
107162.3840332031	6.254243404179026	0.07574645922143369	72.50092189689505
107171.4782714844	6.228351739448517	0.08310696553345949	72.50092189689505
107180.5725097656	6.228495982706068	0.03885264280709396	72.50092189689505
107189.6667480469	6.25503674209556	0.07887539053719102	72.50092189689505
107198.7609863281	6.254820377209232	0.08238633961920777	72.50092189689505
107207.8552246094	6.227053550130552	0.05442477804809029	72.50092189689505
107216.9494628906	6.270182284138476	0.07174241493737157	72.50092189689505
107226.0437011719	6.230803874826894	0.06632604512784018	72.50092189689505
107235.1379394531	6.253738552777596	0.05640418383082919	72.50092189689505
107244.2321777344	6.22864022596362	0.04785990896816864	72.50092189689505
107253.3264160156	6.268667729934184	0.06694141533388764	72.50092189689505
107262.4206542969	6.220057752139301	0.04642326971934408	72.50092189689505
107271.5148925781	6.246021538498585	0.03995975568217948	72.50092189689505
107280.6091308594	6.245949416869809	0.04930756207842754	72.50092189689505
107289.7033691406	6.22092321168461	0.04222723962685553	72.50092189689505
107298.7976074219	6.267008932472341	0.03624620523538222	72.50092189689505
107307.8918457031	6.242126970544693	0.06759217330673727	72.50092189689505
107316.9860839844	6.23736694304549	0.02947460120975878	72.50092189689505
107326.0803222656	6.213061954148049	0.01228616469969294	72.50092189689505
107335.1745605469	6.25503674209556	0.03578507264083879	72.50092189689505
107344.2687988281	6.209167386194157	0.02127002442363103	72.50092189689505
107353.3630371094	6.237294821416715	0.02410183678802588	72.50092189689505
107362.4572753906	6.244579105923069	0.03495113783354348	72.50092189689505
107371.5515136719	6.22092321168461	0.04424329523480258	72.50092189689505
107380.6457519531	6.212917710890498	0.001460343566887829	72.50092189689505
107389.7399902344	6.245011835695724	0.04297678401844827	72.50092189689505
107398.8342285156	6.241694240772038	0.05265782377343423	72.50092189689505
107407.9284667969	6.219480779109095	0.02981049780123541	72.50092189689505
107417.0227050781	6.25965252633721	0.0498774391615256	72.50092189689505
107426.1169433594	6.215946819299081	0.04604705562753303	72.50092189689505
107435.2111816406	6.246310025013688	0.03736878347504035	72.50092189689505
107444.3054199219	6.219408657480319	0.04071698278352044	72.50092189689505
107453.3996582031	6.259291918193331	0.05593980702899584	72.50092189689505
107462.4938964844	6.212124372973964	0.04123700666267684	72.50092189689505
107471.5881347656	6.20173885843025	0.01969461731465285	72.50092189689505
107480.6823730469	6.104086173067829	-0.04429300988480772	72.50092189689505
107489.7766113281	5.946284049306399	-0.1603149662143546	72.50092189689505
107498.8708496094	5.937268845709425	-0.2382735305633102	72.50092189689505
107507.9650878906	6.817729689804279	0.2971651767871684	72.50092189689505
107517.0593261719	7.120063557632394	0.9781361558158428	72.50092189689505
107526.1535644531	6.761979670760593	0.6750225227545664	72.50092189689505
107535.2478027344	6.518424930384748	0.2278857583907323	72.50092189689505
107544.3420410156	6.329466262992176	0.1165955981565915	72.50092189689505
107553.4362792969	6.276528987470745	-0.05874230816300954	72.50092189689505
107562.5305175781	6.246021538498585	-0.03899970496371073	72.50092189689505
107571.6247558594	6.21270134600417	-0.07360724823741686	72.50092189689505
107580.7189941406	6.196041249756963	-0.1091237159508489	72.50092189689505
107589.8132324219	6.223735955206866	-0.05808187992524613	72.50092189689505
107598.9074707031	6.209023142936605	-0.07557624359934483	72.50092189689505
107608.0017089844	6.181833288888131	-0.06813131059405542	72.50092189689505
107617.0959472656	6.220562603540731	-0.07853634189982228	72.50092189689505
107626.1901855469	6.16661562521644	-0.04915513170731296	72.50092189689505
107635.2844238281	6.188684843621832	-0.08830632650688802	72.50092189689505
107644.3786621094	6.149378555939026	-0.06974695699935374	72.50092189689505
107653.4729003906	6.179813883282409	-0.06546987119899438	72.50092189689505
107662.5671386719	6.129472986396908	-0.07908001580594057	72.50092189689505
107671.6613769531	6.147359150333304	-0.06757101943282493	72.50092189689505
107680.7556152344	6.121251120716467	-0.08409143309268581	72.50092189689505
107689.8498535156	6.093484293637788	-0.07400614623414438	72.50092189689505
107698.9440917969	6.124424472382602	-0.091379746733944	72.50092189689505
107708.0383300781	6.069251426369123	-0.0553920991835096	72.50092189689505
107717.1325683594	6.087353955191846	-0.09770158191569635	72.50092189689505
107726.2268066406	6.071775683376275	-0.06132069538441401	72.50092189689505
107735.3210449219	6.121106877458916	-0.02947635963160471	72.50092189689505
107744.4152832031	6.095647942501062	-0.02440686676948752	72.50092189689505
107753.5095214844	6.150748866885766	0.0193596211916287	72.50092189689505
107762.6037597656	6.15752829999069	0.03342974226443378	72.50092189689505
107771.6979980469	6.155797380900071	0.06402125279301998	72.50092189689505
107780.7922363281	6.17945327513853	0.04320217818260488	72.50092189689505
107789.8864746094	6.228279617819741	0.1175254796049073	72.50092189689505
107798.9807128906	6.222726252404005	0.1170574552296487	72.50092189689505
107808.0749511719	6.21133103505743	0.09985057928407873	72.50092189689505
107817.1691894531	6.254099160921474	0.1229328752639505	72.50092189689505
107826.2634277344	6.20671525081578	0.1113264298413318	72.50092189689505
107835.3576660156	6.24421849777919	0.1023979424855381	72.50092189689505
107844.4519042969	6.216740157215615	0.1037053090940661	72.50092189689505
107853.5461425781	6.257128269330058	0.1165384088457073	72.50092189689505
107862.6403808594	6.205705548012919	0.0913232977064997	72.50092189689505
107871.7346191406	6.23873725399223	0.09164309757218382	72.50092189689505
107880.8288574219	6.223086860547884	0.08859035305569862	72.50092189689505
107889.9230957031	6.208878899679053	0.08215787349942538	72.50092189689505
107899.0173339844	6.244434862665518	0.07409387529523147	72.50092189689505
107908.1115722656	6.192940019719604	0.08586777868064066	72.50092189689505
107917.2058105469	6.212268616231516	0.04261075570811562	72.50092189689505
107926.3000488281	6.200296425854734	0.06105116277412841	72.50092189689505
107935.3942871094	6.239819078423867	0.06709651320153043	75.83429761629252
107944.4885253906	6.194959425325326	0.02874282859360226	75.83429761629252
107953.5827636719	6.235924510469975	0.05268163553830251	75.83429761629252
107962.6770019531	6.220274117025628	0.04939314983624796	75.83429761629252
107971.7712402344	6.212124372973964	0.05259938573442775	75.83429761629252
107980.8654785156	6.200729155627389	0.02184028454939151	75.83429761629252
107989.9597167969	6.237439064674266	0.05927810465270284	75.83429761629252
107999.0539550781	6.213783170435807	0.0578049664189562	75.83429761629252
108008.1481933594	6.20808556176252	0.0348598379072633	75.83429761629252
108017.2424316406	6.256046444898421	0.06870492001295625	75.83429761629252
108026.3366699219	6.207075858959659	0.06585333253114201	75.83429761629252
108035.4309082031	6.24919489016472	0.05182798372937549	75.83429761629252
108044.5251464844	6.228423861077292	0.07159493838245214	75.83429761629252
108053.6193847656	6.256262809784748	0.07514447938364194	75.83429761629252
108062.7136230469	6.203614020778421	0.04732605330053619	75.83429761629252
108071.8078613281	6.248617917134514	0.05738874398080313	75.83429761629252
108080.9020996094	6.231308726228324	0.06377469374924404	75.83429761629252
108089.9963378906	6.222509887517678	0.05774150091208143	75.83429761629252
108099.0905761719	6.262681634745793	0.05760900970965042	75.83429761629252
108108.1848144531	6.207580710361089	0.07284819356013833	75.83429761629252
108117.2790527344	6.226837185244225	0.02378832377734937	75.83429761629252
108126.3732910156	6.240540294711625	0.06331625845320943	75.83429761629252
108135.4675292969	6.334731141892808	0.1240381575950229	75.83429761629252
108144.5617675781	6.302637017087581	0.1335821485859029	75.83429761629252
108153.6560058594	6.357377333328406	0.1429007592259574	75.83429761629252
108162.7502441406	6.343818467118558	0.141469444782526	75.83429761629252
108171.8444824219	6.329322019734624	0.1358059150233799	75.83429761629252
108180.9387207031	6.285904799211598	0.06655637482044481	75.83429761629252
108190.0329589844	6.323335924546234	0.08998688146628314	75.83429761629252
108199.1271972656	6.299175178906343	0.08257492526079654	75.83429761629252
108208.2214355469	6.28020719053831	0.05269315924423751	75.83429761629252
108217.3156738281	6.30573824712494	0.05606933970110169	75.83429761629252
108226.4099121094	6.244579105923069	0.0388198758787545	75.83429761629252
108235.5041503906	6.285399947810167	0.01843460205097448	75.83429761629252
108244.5983886719	6.246742754786343	0.02902090343830955	75.83429761629252
108253.6926269531	6.180390856312616	-0.02654003068747998	75.83429761629252
108262.7868652344	6.017540218536881	-0.1651301448612514	75.83429761629252
108271.8811035156	5.932580939838998	-0.2510232989680101	75.83429761629252
108280.9753417969	5.877119407310416	-0.3026793809889408	75.83429761629252
108290.0695800781	6.129545108025684	-0.13735462203344	75.83429761629252
108299.1638183594	6.829052785522078	0.3972957141497658	75.83429761629252
108308.2580566406	7.044191604160262	0.8682170113809229	75.83429761629252
108317.3522949219	6.441254787594652	0.4398490127536122	75.83429761629252
108326.4465332031	6.299175178906343	-0.06604398925113225	75.83429761629252
108335.5407714844	6.257488877473937	0.02421431081885147	75.83429761629252
108344.6350097656	6.187603019190195	-0.07381287572778367	75.83429761629252
108353.7292480469	6.224312928237072	-0.09235728296130265	75.83429761629252
108362.8234863281	6.194743060438999	-0.03104467563098382	75.83429761629252
108371.9177246094	6.193877600893689	-0.09702022928902263	75.83429761629252
108381.0119628906	6.169572611996247	-0.06395233157379077	75.83429761629252
108390.1062011719	6.208518291535174	-0.06806691015501487	75.83429761629252
108399.2004394531	6.182842991690992	-0.04470400408599209	75.83429761629252
108408.2946777344	6.181256315857925	-0.05756913043709414	75.83429761629252
108417.3889160156	6.218543197935009	-0.04204356597616668	75.83429761629252
108426.4831542969	6.166976233360319	-0.018681629654246	75.83429761629252
108435.5773925781	6.209888602481914	-0.05915050537843192	75.83429761629252
108444.6716308594	6.178443572335669	-0.007001602222443917	75.83429761629252
108453.7658691406	6.177650234419136	-0.04742538278642457	75.83429761629252
108462.8601074219	6.115048660641749	-0.06946227859139795	75.83429761629252
108471.9543457031	6.143680947265739	-0.06888952964073199	75.83429761629252
108481.0485839844	6.102860105378641	-0.0747227290027665	75.83429761629252
108490.1428222656	6.080718765344473	-0.0831203805790669	75.83429761629252
108499.2370605469	6.090094577085326	-0.1016728253722307	75.83429761629252
108508.3312988281	6.024031165126702	-0.08401657404607688	75.83429761629252
108517.4255371094	6.038167004366756	-0.1365537503080193	75.83429761629252
108526.5197753906	6.038167004366756	-0.07791775886709146	75.83429761629252
108535.6140136719	6.077256927163235	-0.05513573462550293	75.83429761629252
108544.7082519531	6.046965843077403	-0.0481909026076572	75.83429761629252
108553.8024902344	6.112668646892148	-0.008381557525699076	75.83429761629252
108562.8967285156	6.100191605113936	0.01336929214107122	75.83429761629252
108571.9909667969	6.109855903369892	0.02996229195729505	75.83429761629252
108581.0852050781	6.147503393590855	0.03360008858866918	75.83429761629252
108590.1794433594	6.170293828284005	0.1020933859055392	75.83429761629252
108599.2736816406	6.153201002264143	0.06933959100750042	75.83429761629252
108608.3679199219	6.163947124951736	0.07820370235298196	75.83429761629252
108617.4621582031	6.192435168318173	0.1007570312594108	75.83429761629252
108626.5563964844	6.153128880635367	0.08653073377014561	75.83429761629252
108635.6506347656	6.193300627863483	0.08627268889877475	75.83429761629252
108644.7448730469	6.162071962603565	0.08723608619809237	75.83429761629252
108653.8391113281	6.256046444898421	0.1207329410907961	75.83429761629252
108662.9333496094	6.244146376150415	0.1587421305412842	75.83429761629252
108672.0275878906	6.296867286785518	0.1751586720593528	75.83429761629252
108681.1218261719	6.294703637922244	0.177281452922597	75.83429761629252
108690.2160644531	6.339058439619356	0.2096830173697935	75.83429761629252
108699.3103027344	6.357737941472285	0.2093248401777997	75.83429761629252
108708.4045410156	6.248690038763289	0.1648050327177627	75.83429761629252
108717.4987792969	6.154931921354762	0.01913177899612848	75.83429761629252
108726.5930175781	6.157816786505793	0.001594626348568267	75.83429761629252
108735.6872558594	6.182410261918338	0.04416842888419542	75.83429761629252
108744.7814941406	6.142094271432671	0.01595719306373512	75.83429761629252
108753.8757324219	6.185511491955697	0.03398983333664212	75.83429761629252
108762.9699707031	6.16387500332296	0.0428503954330834	75.83429761629252
108772.0642089844	6.181761167259356	0.04787590226319789	75.83429761629252
108781.1584472656	6.203037047748214	0.05886902107699622	75.83429761629252
108790.2526855469	6.211691643201309	0.092673249829493	75.83429761629252
108799.3469238281	6.182121775403235	0.05706572501345608	75.83429761629252
108808.4411621094	6.187891505705298	0.05432756313784628	75.83429761629252
108817.5354003906	6.21356680554948	0.07525406560643345	75.83429761629252
108826.6296386719	6.175270220669535	0.06508336028844666	75.83429761629252
108835.7238769531	6.208951021307829	0.05854544200003994	75.83429761629252
108844.8181152344	6.159331340710085	0.0555275991439432	75.83429761629252
108853.9123535156	6.147214907075752	0.02158086747778049	75.83429761629252
108863.0065917969	6.105889213787224	-0.009195216311385077	75.83429761629252
108872.1008300781	6.162288327489892	0.02466440608677478	75.83429761629252
108881.1950683594	6.185583613584472	0.06043588807335018	75.83429761629252
108890.2893066406	6.238809375621006	0.1100679639468921	75.83429761629252
108899.3835449219	6.252656728345959	0.1243789057779101	75.83429761629252
108908.4777832031	6.199503087938201	0.1037404474524797	75.83429761629252
108917.5720214844	6.241766362400814	0.07763214854784313	75.83429761629252
108926.6662597656	6.231597212743427	0.1161478171332556	75.83429761629252
108935.7604980469	6.230299023425463	0.09307140282173168	75.83429761629252
108944.8547363281	6.187891505705298	0.05753116995328646	75.83429761629252
108953.9489746094	6.239458470279988	0.08051596719760813	75.83429761629252
108963.0432128906	6.196618222787169	0.07047721387048099	75.83429761629252
108972.1374511719	6.193949722522465	0.05205089161744475	75.83429761629252
108981.2316894531	6.221283819828489	0.05168672990036542	75.83429761629252
108990.3259277344	6.231164482970772	0.09673751405194564	75.83429761629252
108999.4201660156	6.198926114907994	0.0522629778945222	75.83429761629252
109008.5144042969	6.209527994338036	0.04958796768934802	75.83429761629252
109017.6086425781	6.225322631039933	0.06885757448077506	75.83429761629252
109026.7028808594	6.185006640554266	0.04515057346450815	75.83429761629252
109035.7971191406	6.166327138701337	0.0147214721987695	75.83429761629252
109044.8913574219	5.998500108540071	-0.0848692161268193	75.83429761629252
109053.9855957031	5.811488725124446	-0.2628148547318994	75.83429761629252
109063.0798339844	5.994533418957403	-0.2328744552219677	75.83429761629252
109072.1740722656	6.684304676569066	0.330267657653642	75.83429761629252
109081.2683105469	7.044552212304141	0.8535069093435186	75.83429761629252
109090.3625488281	6.817369081660401	0.7343197849371057	75.83429761629252
109099.4567871094	6.538114135040538	0.3274384022686232	75.83429761629252
109108.5510253906	6.36639253692538	0.1281549227856391	75.83429761629252
109117.6452636719	6.344323318519988	0.03860464443095436	75.83429761629252
109126.7395019531	6.274870190008902	0.00333714106982245	75.83429761629252
109135.8337402344	6.265782864783152	-0.03816531949969369	75.83429761629252
109144.9279785156	6.220201995396852	-0.07155688773551854	75.83429761629252
109154.0222167969	6.277394447016055	-0.04325303937086395	75.83429761629252
109163.1164550781	6.264124067321309	-0.03143413165804185	75.83429761629252
109172.2106933594	6.280495677053414	-0.02144591829761453	75.83429761629252
109181.3049316406	6.254027039292699	-0.0455979593944765	75.83429761629252
109190.3991699219	6.194454573923895	-0.07554247296491361	75.83429761629252
109199.4934082031	6.14880158290882	-0.144543051666357	75.83429761629252
109208.5876464844	6.169212003852368	-0.1283568199328554	75.83429761629252
109217.6818847656	6.218975927707664	-0.0760653433016851	75.83429761629252
109226.7761230469	6.209888602481914	-0.05920568127451679	75.83429761629252
109235.8703613281	6.256479174671076	-0.0379254006423945	75.83429761629252
109244.9645996094	6.221355941457265	-0.03443524594969004	75.83429761629252
109254.0588378906	6.254531890694129	-0.03388222391623019	75.83429761629252
109263.1530761719	6.218254711419906	-0.03653528234574879	75.83429761629252
109272.2473144531	6.262825878003345	-0.0178093162807341	75.83429761629252
109281.3415527344	6.242415457059796	-0.01116836332335115	75.83429761629252
109290.4357910156	6.277178082129727	0.006063325419236371	75.83429761629252
109299.5300292969	6.308550990647196	0.03260485915504958	75.83429761629252
109308.6242675781	6.316123761668655	0.06271090710221741	75.83429761629252
109317.7185058594	6.409016419531873	0.09355394213239913	75.83429761629252
109326.8127441406	6.484311399973798	0.1927829136130129	75.83429761629252
109335.9069824219	6.502197563910195	0.2119696011419466	75.83429761629252
109345.0012207031	6.469814952589864	0.16449543674228	75.83429761629252
109354.0954589844	6.511140645878393	0.1707942937535951	75.83429761629252
109363.1896972656	6.438874773845051	0.1319614050989089	75.83429761629252
109372.2839355469	6.424161961574789	0.07367117489220687	75.83429761629252
109381.3781738281	6.408800054645545	0.05041501021308679	75.83429761629252
109390.4724121094	6.395457553322024	0.04763097103308426	75.83429761629252
109399.5666503906	6.344828169921419	-0.01092817273836723	75.83429761629252
109408.6608886719	6.36228160408516	-0.01478718943173549	75.83429761629252
109417.7551269531	6.36451737457721	-0.00140607510694627	75.83429761629252
109426.8493652344	6.322831073144803	-0.02744805407491653	75.83429761629252
109435.9436035156	6.363507671774348	-0.03076783125587148	75.83429761629252
109445.0378417969	6.315691031896	-0.0215738486982878	75.83429761629252
109454.1320800781	6.322254100114597	-0.05374514690809815	75.83429761629252
109463.2263183594	6.27335563580461	-0.07107239057433262	75.83429761629252
109472.3205566406	6.322037735228269	-0.05508386060570648	75.83429761629252
109481.4147949219	6.27746656864483	-0.05688166186650343	77.61863403079353
109490.5090332031	6.300329124966756	-0.05676546676196869	77.61863403079353
109499.6032714844	6.326148668068489	-0.0366804851884945	77.61863403079353
109508.6975097656	6.300833976368186	-0.01362990723672509	77.61863403079353
109517.7917480469	6.373965307946838	-0.01712488088381337	77.61863403079353
109526.8859863281	6.383773849460346	0.05938550873184914	77.61863403079353
109535.9802246094	6.398775148245711	0.04452245743395456	77.61863403079353
109545.0744628906	6.352545184200428	0.01794490653072574	77.61863403079353
109554.1687011719	6.405770946236962	0.0356893953023923	77.61863403079353
109563.2629394531	6.356223387267994	0.02220774942251518	77.61863403079353
109572.3571777344	6.364445252948434	0.0106700242076486	77.61863403079353
109581.4514160156	6.408655811387994	0.02076997801904198	77.61863403079353
109590.5456542969	6.5483554063267	0.1495100720479149	77.61863403079353
109599.6398925781	6.431518367709919	0.1221918189006579	77.61863403079353
109608.7341308594	6.452433640054899	0.03837630609767681	77.61863403079353
109617.8283691406	6.480416832019905	0.08710454853893214	77.61863403079353
109626.9226074219	6.453515464486536	0.08329394494145652	77.61863403079353
109636.0168457031	6.495706617320373	0.05779920620896695	77.61863403079353
109645.1110839844	6.415435244492918	0.06062567051429975	77.61863403079353
109654.2053222656	6.412045527940456	-0.0177942876735354	77.61863403079353
109663.2995605469	6.320162572880099	-0.05121064775273482	77.61863403079353
109672.3937988281	6.322254100114597	-0.088711699570313	77.61863403079353
109681.4880371094	6.277682933531158	-0.1133687195633027	77.61863403079353
109690.5822753906	6.340428750566096	-0.06608103931679862	77.61863403079353
109699.6765136719	6.371657415826013	-0.03462942438822411	77.61863403079353
109708.7707519531	6.382980511543813	0.01381991539949293	77.61863403079353
109717.8649902344	6.483229575542161	0.03643818167954015	77.61863403079353
109726.9592285156	6.559390015529396	0.1596710006930433	77.61863403079353
109736.0534667969	6.582829544881529	0.1701950692020338	77.61863403079353
109745.1477050781	6.540854756934018	0.1300210671306889	77.61863403079353
109754.2419433594	6.514458240802079	0.09491007762810158	77.61863403079353
109763.3361816406	6.412478257713111	0.0005343956491447241	77.61863403079353
109772.4304199219	6.394952701920594	-0.04126428429325699	77.61863403079353
109781.5246582031	6.37959079499135	-0.0634019988056241	77.61863403079353
109790.6188964844	6.434547476118502	-0.0137134640280746	77.61863403079353
109799.7131347656	6.392428444913441	-0.02442346031837452	77.61863403079353
109808.8073730469	6.461016113879218	-0.007235383665984596	77.61863403079353
109817.9016113281	6.482580480883179	0.05539762949188926	77.61863403079353
109826.9958496094	6.433105043542986	0.04164622653984693	77.61863403079353
109836.0900878906	6.405338216464307	-0.02098068485647806	77.61863403079353
109845.1843261719	6.234770564409562	-0.1030576506776483	77.61863403079353
109854.2785644531	6.293693935119383	-0.1635275644753521	77.61863403079353
109863.3728027344	7.388716624822215	0.5039056088033798	77.61863403079353
109872.4670410156	7.612654282171045	1.265423619440862	77.61863403079353
109881.5612792969	7.013395668673	0.6803204842001802	77.61863403079353
109890.6555175781	6.664254863769396	0.06929593482847897	77.61863403079353
109899.7497558594	6.447168761154266	-0.05356794936069723	77.61863403079353
109908.8439941406	6.319152870077238	-0.2841617699142882	77.61863403079353
109917.9382324219	6.302276408943702	-0.2676071544839616	77.61863403079353
109927.0324707031	6.226115968956467	-0.2999461865529313	77.61863403079353
109936.1267089844	6.219913508881749	-0.3307737717238785	77.61863403079353
109945.2209472656	6.194238209037568	-0.2912820273279834	77.61863403079353
109954.3151855469	6.225466874297485	-0.2843319480687992	77.61863403079353
109963.4094238281	6.144185798667169	-0.2644234276394399	77.61863403079353
109972.5036621094	6.130482689199769	-0.31595630125234	77.61863403079353
109981.5979003906	6.10733164636274	-0.2818410841705512	77.61863403079353
109990.6921386719	6.150965231772093	-0.2414494736872652	77.61863403079353
109999.7863769531	6.198709750021667	-0.170452845768175	77.61863403079353
110008.8806152344	6.185655735213248	-0.1213979422344243	77.61863403079353
110017.9748535156	6.113606228066233	-0.1783629646793211	77.61863403079353
110027.0690917969	6.094277631554322	-0.1867665574335172	77.61863403079353
110036.1633300781	6.163947124951736	-0.1311975387468821	77.61863403079353
110045.2575683594	6.112380160377045	-0.08657861614611265	77.61863403079353
110054.3518066406	6.128102675450168	-0.1142018226157491	77.61863403079353
110063.4460449219	6.10235525397721	-0.08073274541903106	77.61863403079353
110072.5402832031	6.128607526851599	-0.05977130156285861	77.61863403079353
110081.6345214844	6.077545413678338	-0.0646146807540163	77.61863403079353
110090.7287597656	6.106898916590085	-0.04433629930330212	77.61863403079353
110099.8229980469	6.095215212728407	-0.026043453154636	77.61863403079353
110108.9172363281	6.098677050909645	0.001654646499224224	77.61863403079353
110118.0114746094	6.176929018131378	0.0413605348032388	77.61863403079353
110127.1057128906	6.255974323269645	0.1642421349524459	77.61863403079353
110136.1999511719	6.254964620466784	0.1823433506337425	77.61863403079353
110145.2941894531	6.226332333842795	0.1558283355407663	77.61863403079353
110154.3884277344	6.259291918193331	0.1698679572074895	77.61863403079353
110163.4826660156	6.224024441721969	0.1692389630925056	77.61863403079353
110172.5769042969	6.252656728345959	0.1672918314810375	77.61863403079353
110181.6711425781	6.242415457059796	0.1764042106974752	77.61863403079353
110190.7653808594	6.242776065203675	0.1809436416007145	77.61863403079353
110199.8596191406	6.310858882768021	0.2002548493946133	77.61863403079353
110208.9538574219	6.381538078968297	0.2991757002621842	77.61863403079353
110218.0480957031	6.373027726772753	0.294230787391458	77.61863403079353
110227.1423339844	6.332206884885656	0.2512148954736511	77.61863403079353
110236.2365722656	6.347280305299796	0.2328431219081723	77.61863403079353
110245.3308105469	6.28107265008362	0.2041896130534189	77.61863403079353
110254.4250488281	6.289871488794266	0.1753085691159229	75.83429761629252
110263.5192871094	6.269461067850718	0.1851188511110418	75.83429761629252
110272.6135253906	6.279269609364225	0.1853194474823577	75.83429761629252
110281.7077636719	6.234265713008131	0.1490538664179983	75.83429761629252
110290.8020019531	6.268667729934184	0.163756129747988	75.83429761629252
110299.8962402344	6.26188829682926	0.1690988119451444	75.83429761629252
110308.9904785156	6.246742754786343	0.1661208749649924	75.83429761629252
110318.0847167969	6.250637322740237	0.1451398366197463	75.83429761629252
110327.1789550781	6.197483682332479	0.136620864823813	75.83429761629252
110336.2731933594	6.216235305814184	0.1069997848906927	75.83429761629252
110345.3674316406	6.21493711649622	0.1338419544407309	75.83429761629252
110354.4616699219	6.227991131304638	0.1449729379240244	75.83429761629252
110363.5559082031	6.165822287299906	0.102691381928687	75.83429761629252
110372.6501464844	6.195608519984308	0.1051216120261593	75.83429761629252
110381.7443847656	6.189333938280814	0.115269325694467	75.83429761629252
110390.8386230469	6.203325534263318	0.1346865739046043	75.83429761629252
110399.9328613281	6.258787066791901	0.1543959494075476	75.83429761629252
110409.0270996094	6.309200085306178	0.2315209857864374	75.83429761629252
110418.1213378906	6.278043541675037	0.2113378469715544	75.83429761629252
110427.2155761719	6.276312622584418	0.1806662450435567	75.83429761629252
110436.3098144531	6.302925503602684	0.2036735346170542	75.83429761629252
110445.4040527344	6.235203294182217	0.1681003980262327	75.83429761629252
110454.4982910156	6.252223998573304	0.1326717409546234	75.83429761629252
110463.5925292969	6.210609818769672	0.1284583721216908	75.83429761629252
110472.6867675781	6.233832983235477	0.1186810902413144	75.83429761629252
110481.7810058594	6.18940605990959	0.1012430434950884	75.83429761629252
110490.8752441406	6.246382146642464	0.1183724067484151	75.83429761629252
110499.9694824219	6.256046444898421	0.1465805385673238	75.83429761629252
110509.0637207031	6.288284812961199	0.1716912766864509	75.83429761629252
110518.1579589844	6.323480167803785	0.1833102997452603	75.83429761629252
110527.2521972656	6.274798068380126	0.1824806528308716	75.83429761629252
110536.3464355469	6.262537391488242	0.1166838907990334	75.83429761629252
110545.4406738281	6.248617917134514	0.1175584353960302	75.83429761629252
110554.5349121094	6.244434862665518	0.1081665496972132	75.83429761629252
110563.6291503906	6.189694546424693	0.06005975970761726	75.83429761629252
110572.7233886719	6.227846888047086	0.06816227886913584	75.83429761629252
110581.8176269531	6.206354642671901	0.07039534645615664	75.83429761629252
110590.9118652344	6.199286723051873	0.06168887522889024	75.83429761629252
110600.0061035156	6.175847193699741	0.02971436660424986	75.83429761629252
110609.1003417969	6.192795776462052	0.04749679235484104	75.83429761629252
110618.1945800781	6.095215212728407	-0.005420170237247349	75.83429761629252
110627.2888183594	6.005495906531324	-0.104128369584008	75.83429761629252
110636.3830566406	5.913685073099742	-0.1762540171913319	75.83429761629252
110645.4772949219	5.927676669082245	-0.1867400310884835	75.83429761629252
110654.5715332031	6.409881879077182	0.1150080449979808	75.83429761629252
110663.6657714844	6.961107487810551	0.6965837081795623	75.83429761629252
110672.7600097656	6.624515846313936	0.6908575660028946	75.83429761629252
110681.8542480469	6.381177470824418	0.1694217412664354	75.83429761629252
110690.9484863281	6.307974017616989	0.1156548688944752	75.83429761629252
110700.0427246094	6.245516687097155	0.08189835611234002	75.83429761629252
110709.1369628906	6.231669334372203	-0.006218894869655423	75.83429761629252
110718.2312011719	6.219480779109095	0.04357971973972837	75.83429761629252
110727.3254394531	6.1902715194549	-0.02295340659117257	75.83429761629252
110736.4196777344	6.179381153509755	-0.01292882368346846	75.83429761629252
110745.5139160156	6.169933220140126	-0.02822316291967774	75.83429761629252
110754.6081542969	6.164668341239493	-0.0302090582959188	75.83429761629252
110763.7023925781	6.130194202684666	-0.03889390860334444	75.83429761629252
110772.7966308594	6.156951326960484	-0.05162227195746445	75.83429761629252
110781.8908691406	6.123054161435862	-0.02408031118739422	75.83429761629252
110790.9851074219	6.12016929628483	-0.06400066512980285	75.83429761629252
110800.0793457031	6.086632738904088	-0.0575221529325921	75.83429761629252
110809.1735839844	6.094277631554322	-0.06914074713641449	75.83429761629252
110818.2678222656	6.023959043497926	-0.09055511512263775	75.83429761629252
110827.3620605469	6.016819002249123	-0.1205555742822319	75.83429761629252
110836.4562988281	6.024103286755477	-0.1038282681330502	75.83429761629252
110845.5505371094	5.999077081570277	-0.08434442158500874	75.83429761629252
110854.6447753906	6.024031165126702	-0.0977559268871243	75.83429761629252
110863.7390136719	6.002683163009068	-0.05513652600412994	75.83429761629252
110872.8332519531	6.03347909849633	-0.06267525303166581	75.83429761629252
110881.9274902344	6.024536016528132	-0.02748877421166756	75.83429761629252
110891.0217285156	6.063698060953387	-0.007078105187997981	75.83429761629252
110900.1159667969	6.071775683376275	0.01736356748650659	75.83429761629252
110909.2102050781	6.089806090570223	0.04629305880054967	75.83429761629252
110918.3044433594	6.114904417384198	0.04983896621285519	75.83429761629252
110927.3986816406	6.112019552233166	0.08424969284335865	75.83429761629252
110936.4929199219	6.170077463397678	0.08715660278267268	75.83429761629252
110945.5871582031	6.170654436427884	0.1367342974138267	75.83429761629252
110954.6813964844	6.196329736272066	0.1251417753654705	75.83429761629252
110963.7756347656	6.171519895973193	0.1196916196284463	75.83429761629252
110972.8698730469	6.209239507822932	0.1268434349988155	75.83429761629252
110981.9641113281	6.176856896502602	0.1124818651430081	75.83429761629252
110991.0583496094	6.15067674525699	0.08595380256074517	75.83429761629252
111000.1525878906	6.141228811887362	0.04455619898256126	75.83429761629252
111009.2468261719	6.153489488779246	0.07409847895171311	75.83429761629252
111018.3410644531	6.122332945148104	0.04063716120300184	75.83429761629252
111027.4353027344	6.132429973176715	0.03547119271701191	75.83429761629252
111036.5295410156	6.138127581850003	0.04652588298907395	75.83429761629252
111045.6237792969	6.105240119128242	0.0258193554623107	75.83429761629252
111054.7180175781	6.121611728860346	0.01568230707724981	75.83429761629252
111063.8122558594	6.098460686023318	0.01651035289762808	74.9725442342892
111072.9064941406	6.129689351283235	0.02115628039468391	74.9725442342892
111082.0007324219	6.132574216434267	0.03529969433741585	74.9725442342892
111091.0949707031	6.179092666994651	0.06671333187766479	74.9725442342892
111100.1892089844	6.136829392532039	0.05122105957170352	74.9725442342892
111109.2834472656	6.14793612336351	0.03311048526870473	74.9725442342892
111118.3776855469	6.174404761124225	0.05869244429916932	74.9725442342892
111127.4719238281	6.150244015484335	0.08105353639633159	74.9725442342892
111136.5661621094	6.162288327489892	0.04439746275708596	74.9725442342892
111145.6604003906	6.168995638966041	0.07124571554938224	74.9725442342892
111154.7546386719	6.175847193699741	0.071786472914095	74.9725442342892
111163.8488769531	6.156230110672726	0.05030790449446272	74.9725442342892
111172.9431152344	6.185439370326921	0.06664946731944647	74.9725442342892
111182.0373535156	6.15291251574904	0.05028207774032895	74.9725442342892
111191.1315917969	6.156662840445381	0.03913714208956171	74.9725442342892
111200.2258300781	6.163225908663978	0.03559740630974274	74.9725442342892
111209.3200683594	6.188324235477953	0.06481654259501091	74.9725442342892
111218.4143066406	6.175847193699741	0.05367315992076288	74.9725442342892
111227.5085449219	6.178732058850772	0.04815975691925301	74.9725442342892
111236.6027832031	6.189261816652039	0.05163018932069215	74.9725442342892
111245.6970214844	6.173178693435037	0.04541083457351267	74.9725442342892
111254.7912597656	6.19351699274981	0.04206373450537486	74.9725442342892
111263.8854980469	6.163370151921529	0.03516238405271156	74.9725442342892
111272.9797363281	6.159980435369067	0.01356248965834401	74.9725442342892
111282.0739746094	6.127020851018531	-0.01013679533806565	74.9725442342892
111291.1682128906	6.138848798137761	-0.01040916231725522	74.9725442342892
111300.2624511719	6.101922524204555	-0.02966983612995407	74.9725442342892
111309.3566894531	6.112885011778475	-0.0344478250301164	74.9725442342892
111318.4509277344	6.108052862650498	-0.03108118870242	74.9725442342892
111327.5451660156	6.099181902311075	-0.02929232037548893	74.9725442342892
111336.6394042969	6.138848798137761	-0.01958700306186427	74.9725442342892
111345.7336425781	6.157311935104363	0.02594855180278237	74.9725442342892
111354.8278808594	6.176784774873826	0.03239713899268315	74.9725442342892
111363.9221191406	6.155725259271295	0.0248018771689578	74.9725442342892
111373.0163574219	6.172890206919933	0.02412287466586218	74.9725442342892
111382.1105957031	6.107908619392946	-0.008910085330945766	74.9725442342892
111391.2048339844	6.10783649776417	-0.0396821492232213	74.9725442342892
111400.2990722656	6.117140187876247	-0.03082372588417396	74.9725442342892
111409.3933105469	6.10459102446926	-0.01561821787660167	74.9725442342892
111418.4875488281	6.012131096378696	-0.09208715801708439	74.9725442342892
111427.5817871094	5.912459005410553	-0.1761154079356843	74.9725442342892
111436.6760253906	5.862118108525051	-0.2371861367843645	74.9725442342892
111445.7702636719	6.030017260315092	-0.1346745449439193	74.9725442342892
111454.8645019531	6.641825037220126	0.3151483481115778	74.9725442342892
111463.9587402344	6.998178005001308	0.8133154685758154	74.9725442342892
111473.0529785156	6.45755427569798	0.5414459365841459	74.9725442342892
111482.1472167969	6.252079755315752	-0.02215554966748458	74.9725442342892
111491.2414550781	6.180246613055064	-0.00448714319615777	74.9725442342892
111500.3356933594	6.12824691870772	-0.07480538433331249	74.9725442342892
111509.4299316406	6.137262122304693	-0.1213388533110571	74.9725442342892
111518.5241699219	6.142310636318999	-0.04511953261040618	74.9725442342892
111527.6184082031	6.124496594011378	-0.1099611109429449	74.9725442342892
111536.7126464844	6.121683850489122	-0.07464891575235587	74.9725442342892
111545.8068847656	6.139425771167967	-0.0764097567181434	74.9725442342892
111554.9011230469	6.123631134466068	-0.04498637317301139	74.9725442342892
111563.9953613281	6.103869808181502	-0.07017666700038164	74.9725442342892
111573.0895996094	6.130771175714872	-0.06637429724176093	74.9725442342892
111582.1838378906	6.098821294167196	-0.03669654061566973	74.9725442342892
111591.2780761719	6.094638239698201	-0.08662219585358881	74.9725442342892
111600.3723144531	6.084324846783263	-0.05423928709958439	74.9725442342892
111609.4665527344	6.075886616216495	-0.07465191620334893	74.9725442342892
111618.5607910156	6.048768883796797	-0.077534798502601	74.9725442342892
111627.6550292969	6.070405372429535	-0.0708972275824596	74.9725442342892
111636.7492675781	6.093844901781667	-0.0365632419093361	74.9725442342892
111645.8435058594	6.112740768520924	-0.001893686201464345	74.9725442342892
111654.9377441406	6.149883407340457	0.01493920195341518	74.9725442342892
111664.0319824219	6.129689351283235	0.04154296526495406	74.9725442342892
111673.1262207031	6.070477494058311	-0.0240022888158449	74.9725442342892
111682.2204589844	6.058072573908874	-0.04529739789347942	74.9725442342892
111691.3146972656	6.111875308975614	-0.006039735028251791	74.9725442342892
111700.4089355469	6.100407970000264	0.02469343707635082	74.9725442342892
111709.5031738281	6.160918016543152	0.0406511380269242	74.9725442342892
111718.5974121094	6.198421263506564	0.101011352962794	74.9725442342892
111727.6916503906	6.167192598246646	0.09751281119739619	74.9725442342892
111736.7858886719	6.271191986941337	0.1088702676923874	74.9725442342892
111745.8801269531	6.200945520513717	0.1589500024113211	74.9725442342892
111754.9743652344	6.126227513101997	0.02448237338854011	74.9725442342892
111764.0686035156	6.129977837798339	0.007243795111131704	74.9725442342892
111773.1628417969	6.208806778050278	0.0827757602084255	74.9725442342892
111782.2570800781	6.176784774873826	0.08241240447653672	74.9725442342892
111791.3513183594	6.17483749089688	0.06341060025785075	74.9725442342892
111800.4455566406	6.160413165141722	0.04366794836236894	74.9725442342892
111809.5397949219	6.189117573394487	0.06907417842492605	74.9725442342892
111818.6340332031	6.177217504646481	0.06217603455775819	74.9725442342892
111827.7282714844	6.196473979529618	0.07051752222774732	74.9725442342892
111836.8225097656	6.189694546424693	0.070303479316499	74.9725442342892
111845.9167480469	6.165894408928682	0.05130141700615381	74.9725442342892
111855.0109863281	6.180030248168737	0.04243930274292106	75.83429761629252
111864.1052246094	6.138199703478779	0.03379087394331568	75.83429761629252
111873.1994628906	6.18630482987223	0.03174507145754598	75.83429761629252
111882.2937011719	6.1720968690034	0.05764509995620185	75.83429761629252
111891.3879394531	6.208951021307829	0.06495796154078298	75.83429761629252
111900.4821777344	6.16712047661787	0.05061432886966208	75.83429761629252
111909.5764160156	6.164884706125821	0.0340996707042046	75.83429761629252
111918.6706542969	6.151686448059851	0.01387268624154049	75.83429761629252
111927.7648925781	6.149162191052699	0.02669427450232428	75.83429761629252
111936.8591308594	6.13372816249468	0.0001419055985215547	75.83429761629252
111945.9533691406	6.089950333827774	-0.0161941114891088	75.83429761629252
111955.0476074219	6.068025358679934	-0.05462641204595832	75.83429761629252
111964.1418457031	6.06672716936197	-0.0519708366017833	75.83429761629252
111973.2360839844	6.121683850489122	-0.006181904843101726	75.83429761629252
111982.3303222656	6.085839400987554	0.01039385580527638	75.83429761629252
111991.4245605469	6.091320644774514	0.01031845012901236	75.83429761629252
112000.5187988281	6.064924128642575	-0.004162953139326684	75.83429761629252
112009.6130371094	6.056341654818255	-0.002019122940511572	75.83429761629252
112018.7072753906	6.017251732021777	-0.03237078314208242	75.83429761629252
112027.8015136719	6.042782788608407	-0.01662638814990308	75.83429761629252
112036.8957519531	6.041123991146564	0.005142826964772868	75.83429761629252
112045.9899902344	6.028430584482025	0.003766585061219015	75.83429761629252
112055.0842285156	6.071126588717293	0.02391372111474498	75.83429761629252
112064.1784667969	6.041268234404115	0.04683870764485852	75.83429761629252
112073.2727050781	6.07905996788263	0.04246924038569673	75.83429761629252
112082.3669433594	6.038094882737981	0.05317258298448215	75.83429761629252
112091.4611816406	6.05403376269743	0.04279530023151584	75.83429761629252
112100.5554199219	6.001312852062327	0.02269619322411651	75.83429761629252
112109.6496582031	6.013357164067885	0.02183868614264626	75.83429761629252
112118.7438964844	6.018117191567087	0.02703988103690722	75.83429761629252
112127.8381347656	6.034416679670415	0.06593502482151992	75.83429761629252
112136.9323730469	6.097450983220456	0.0904332551263851	75.83429761629252
112146.0266113281	6.140723960485931	0.1685757886015454	75.83429761629252
112155.1208496094	6.132574216434267	0.1630339576951153	75.83429761629252
112164.2150878906	6.116346849959713	0.1369073099102492	75.83429761629252
112173.3093261719	6.137622730448572	0.1504115363006043	75.83429761629252
112182.4035644531	6.072713264550361	0.1142339298292222	75.83429761629252
112191.4978027344	6.027853611451818	0.05841252208187094	75.83429761629252
112200.5920410156	5.92039238457589	-0.02184870898930913	75.83429761629252
112209.6862792969	6.04530704561556	0.01308241702247644	75.83429761629252
112218.7805175781	6.480993805050112	0.3369761578671797	75.83429761629252
112227.8747558594	6.866988762258144	0.7756021914536528	75.83429761629252
112236.9689941406	6.688848339181941	0.7427708821411122	75.83429761629252
112246.0632324219	6.417166163583537	0.3699555143374542	75.83429761629252
112255.1574707031	6.303358233375339	0.1799103839977421	75.83429761629252
112264.2517089844	6.166543503587664	0.08264259643311055	75.83429761629252
112273.3459472656	6.127525702419962	-0.02856992467015375	75.83429761629252
112282.4401855469	6.083098779094074	-0.03718722921546677	75.83429761629252
112291.5344238281	6.091032158259411	-0.05089137268630527	75.83429761629252
112300.6286621094	6.049850708228434	-0.06708003937106355	75.83429761629252
112309.7229003906	6.083459387237953	-0.05147150808151108	75.83429761629252
112318.8171386719	6.098100077879439	-0.02966005266736906	75.83429761629252
112327.9113769531	6.133800284123455	0.01602404804503969	75.83429761629252
112337.0056152344	6.190415762712451	0.04438767573015064	75.83429761629252
112346.0998535156	6.155508894384968	0.07055117725314801	75.83429761629252
112355.1940917969	6.149594920825353	0.01591648538283163	75.83429761629252
112364.2883300781	6.134954230183868	0.02142530159964066	75.83429761629252
112373.3825683594	6.141733663288792	0.02118736164635425	75.83429761629252
112382.4768066406	6.121683850489122	0.01069649579637898	75.83429761629252
112391.5710449219	6.160485286770498	0.051840210641732	75.83429761629252
112400.6652832031	6.121178999087691	0.03347018894969452	75.83429761629252
112409.7595214844	6.084757576555917	0.003177165037161887	75.83429761629252
112418.8537597656	6.042782788608407	-0.04412615252281399	75.83429761629252
112427.9479980469	6.078843602996303	-0.01948184590556178	75.83429761629252
112437.0422363281	6.063265331180731	-0.002490481797226543	75.83429761629252
112446.1364746094	6.068530210081365	-0.007928424230759242	75.83429761629252
112455.2307128906	6.058505303681529	-0.001190418715676868	75.83429761629252
112464.3249511719	6.025689962588545	-0.01892541859085021	75.83429761629252
112473.4191894531	6.056630141333359	-0.01370474342930112	75.83429761629252
112482.5134277344	6.048336154024143	0.01576535063789987	75.83429761629252
112491.6076660156	6.069251426369123	0.0207960901307085	75.83429761629252
112500.7019042969	6.02886331425468	0.01296694260376908	75.83429761629252
112509.7961425781	6.063409574438283	0.01902413283732347	75.83429761629252
112518.8903808594	6.080069670685491	0.050382546381018	75.83429761629252
112527.9846191406	6.101057064659246	0.08105138843868162	75.83429761629252
112537.0788574219	6.146133082644115	0.09804968459526099	75.83429761629252
112546.1730957031	6.134882108555092	0.1315004655862935	75.83429761629252
112555.2673339844	6.130699054086096	0.09563720353453595	75.83429761629252
112564.3615722656	6.129328743139356	0.1011491265871629	75.83429761629252
112573.4558105469	6.143103974235532	0.1098421854164937	75.83429761629252
112582.5500488281	6.113389863179906	0.08819715105718366	75.83429761629252
112591.6442871094	6.145772474500236	0.09729744888908988	75.83429761629252
112600.7385253906	6.139425771167967	0.1035425708748938	75.83429761629252
112609.8327636719	6.154354948324555	0.1112839751737729	75.83429761629252
112618.9270019531	6.128968134995477	0.08966208099694083	75.83429761629252
112628.0212402344	6.135891811357953	0.0871990934384746	78.54266538830298
112637.1154785156	6.121755972117898	0.07497359303838065	78.54266538830298
112646.2097167969	6.104374659582932	0.06255185745907248	78.54266538830298
112655.3039550781	6.151037353400869	0.07266827612945527	78.54266538830298
112664.3981933594	6.137622730448572	0.1001029676675026	78.54266538830298
112673.4924316406	6.1857999784708	0.1011679182103492	78.54266538830298
112682.5866699219	6.163442273550305	0.1140638773222918	78.54266538830298
112691.6809082031	6.175919315328517	0.1018489999943195	78.54266538830298
112700.7751464844	6.156230110672726	0.08224991748130736	78.54266538830298
112709.8693847656	6.185583613584472	0.1012761132459321	78.54266538830298
112718.9636230469	6.181039950971598	0.09232094920022534	78.54266538830298
112728.0578613281	6.170077463397678	0.09200396595752108	78.54266538830298
112737.1520996094	6.191136979000209	0.07579845594511864	78.54266538830298
112746.2463378906	6.187098167788764	0.09734288882792577	78.54266538830298
112755.3405761719	6.138055460221227	0.05036138433933686	78.54266538830298
112764.4348144531	6.150027650598008	0.02296846392181718	78.54266538830298
112773.5290527344	6.202892804490663	0.07971030455367249	78.54266538830298
112782.6232910156	6.190848492485106	0.08144096362826536	78.54266538830298
112791.7175292969	6.208013440133744	0.07600563547983177	78.54266538830298
112800.8117675781	6.135459081585299	0.03848634018084986	78.54266538830298
112809.9060058594	6.150820988514542	0.003180063889519432	78.54266538830298
112819.0002441406	6.148224609878613	0.01878380140551216	78.54266538830298
112828.0944824219	6.193084262977155	0.04447505447601186	78.54266538830298
112837.1887207031	6.13423301389611	0.02878846375697548	78.54266538830298
112846.2829589844	6.158321637907224	0.01498171678039618	78.54266538830298
112855.3771972656	6.209383751080484	0.05942778556026578	78.54266538830298
112864.4714355469	6.163802881694184	0.06857715288355659	78.54266538830298
112873.5656738281	6.178587815593221	0.02068403634011236	78.54266538830298
112882.6599121094	6.150099772226784	0.03833185915963239	78.54266538830298
112891.7541503906	6.119592323254624	-0.00245290757840391	78.54266538830298
112900.8483886719	5.965396280931984	-0.1046668489838725	78.54266538830298
112909.9426269531	5.940874927148215	-0.1768809917967309	78.54266538830298
112919.0368652344	6.211042548542327	-0.0173879946913584	78.54266538830298
112928.1311035156	6.885884628997402	0.538790589751871	78.54266538830298
112937.2253417969	7.084796081161032	0.9278458850827466	78.54266538830298
112946.3195800781	6.496211468721803	0.528489149160397	78.54266538830298
112955.4138183594	6.327591100644005	-0.003346353393951146	78.54266538830298
112964.5080566406	6.25143066065677	0.03583572631181536	78.54266538830298
112973.6022949219	6.240540294711625	-0.03115365767777465	78.54266538830298
112982.6965332031	6.153994340180677	-0.1015437915363464	78.54266538830298
112991.7907714844	6.104879510984363	-0.1200164460571695	78.54266538830298
113000.8850097656	5.975998160362025	-0.2566582698553218	78.54266538830298
113009.9792480469	5.96099686157666	-0.2554061238898761	78.54266538830298
113019.0734863281	6.039032463912066	-0.2271032332446732	78.54266538830298
113028.1677246094	6.076607832504253	-0.1035382878246854	78.54266538830298
113037.2619628906	6.06312108792318	-0.1255658687567469	78.54266538830298
113046.3562011719	6.071847805005051	-0.113064672784301	78.54266538830298
113055.4504394531	6.084757576555917	-0.07627056166758982	78.54266538830298
113064.5446777344	6.029584530542437	-0.1145393871880299	78.54266538830298
113073.6389160156	6.066438682846867	-0.09331074085712879	78.54266538830298
113082.7331542969	6.046244626789645	-0.08513356880413271	78.54266538830298
113091.8273925781	6.026699665391406	-0.08179178440540434	78.54266538830298
113100.9216308594	5.979604241800814	-0.131109341360702	78.54266538830298
113110.0158691406	5.996336459676797	-0.1057046403479279	78.54266538830298
113119.1101074219	5.947798603510691	-0.1194631524556647	78.54266538830298
113128.2043457031	5.962439294152176	-0.1203721023483689	78.54266538830298
113137.2985839844	5.908780802342988	-0.1182145467966107	78.54266538830298
113146.3928222656	5.870989068864473	-0.1601964557212443	78.54266538830298
113155.4870605469	5.96597325396219	-0.09948120463945664	78.54266538830298
113164.5812988281	5.985878823504308	-0.007978369484644489	78.54266538830298
113173.6755371094	6.022444489293634	0.007611203994111263	78.54266538830298
113182.7697753906	6.011337758462163	0.02452875776952999	78.54266538830298
113191.8640136719	6.070621737315863	0.06340201761315265	78.54266538830298
113200.9582519531	6.063914425839714	0.08237246242462758	78.54266538830298
113210.0524902344	6.045451288873111	0.0774475684717674	78.54266538830298
113219.1467285156	5.990350364488407	0.01995959924078302	78.54266538830298
113228.2409667969	6.020569326945464	0.03338567846673712	78.54266538830298
113237.3352050781	6.020208718801585	0.05371460883787638	78.54266538830298
113246.4294433594	6.079636940912836	0.08780947885271896	78.54266538830298
113255.5236816406	6.10459102446926	0.1352625974274687	78.54266538830298
113264.6179199219	6.084469090040814	0.124818724922287	78.54266538830298
113273.7121582031	6.137911216963675	0.1334891307120939	78.54266538830298
113282.8063964844	6.145339744727582	0.173843368565541	78.54266538830298
113291.9006347656	6.144907014954927	0.1588868705990525	78.54266538830298
113300.9948730469	6.124929323784032	0.1336187749190387	78.54266538830298
113310.0891113281	6.146782177303098	0.1429052531787285	84.58440887971091
113319.1833496094	6.092690955721254	0.1098010372550112	84.58440887971091
113328.2775878906	6.111226214316632	0.0910410775018435	84.58440887971091
113337.3718261719	6.132646338063043	0.1127914974744961	84.58440887971091
113346.4660644531	6.081584224889783	0.09944260341693545	84.58440887971091
113355.5603027344	6.11057711965765	0.07260715343755939	84.58440887971091
113364.6545410156	6.117933525792781	0.130672972748635	84.58440887971091
113373.7487792969	6.1309875406012	0.1218712164230469	84.58440887971091
113382.8430175781	6.107908619392946	0.1068148371847196	84.58440887971091
113391.9372558594	6.150604623628214	0.1287490814885787	84.58440887971091
113401.0314941406	6.128463283594047	0.1230790767825053	84.58440887971091
113410.1257324219	6.12601114821567	0.1159646174166715	84.58440887971091
113419.2199707031	6.090383063600429	0.07703625799584206	84.58440887971091
113428.3142089844	6.116851701361144	0.08943601435911194	84.58440887971091
113437.4084472656	6.085839400987554	0.07880857523695506	84.58440887971091
113446.5026855469	6.094926726213304	0.06780058000834055	84.58440887971091
113455.5969238281	6.108557714051928	0.08161638032100879	84.58440887971091
113464.6911621094	6.109351051968462	0.09107828112929697	84.58440887971091
113473.7854003906	6.131276027116303	0.0948501657557278	84.58440887971091
113482.8796386719	6.07631934598915	0.07754846927247672	84.58440887971091
113491.9738769531	6.09362853689534	0.04971431251236326	84.58440887971091
113501.0681152344	6.074876913413634	0.0579443323831437	84.58440887971091
113510.1623535156	6.097234618334129	0.06454426235519142	84.58440887971091
113519.2565917969	6.051076775917623	0.04034877126329126	84.58440887971091
113528.3508300781	6.085550914472451	0.04620617205521772	84.58440887971091
113537.4450683594	6.079853305799164	0.0573996522146818	84.58440887971091
113546.5393066406	6.057062871106013	0.04992094804844187	84.58440887971091
113555.6335449219	6.043648248153716	0.01466059006314438	84.58440887971091
113564.7277832031	6.015953542703813	0.01524247621084209	84.58440887971091
113573.8220214844	5.944408886958229	-0.04353915134203302	84.58440887971091
113582.9162597656	5.826706388796138	-0.1351937847611255	84.58440887971091
113592.0104980469	5.808603859973414	-0.1792996284631577	84.58440887971091
113601.1047363281	6.069107183111571	-0.01629816929398587	84.58440887971091
113610.1989746094	6.750656575042794	0.5278830277538328	84.58440887971091
113619.2932128906	6.580882260904582	0.7430706302392687	84.58440887971091
113628.3874511719	6.348145764845105	0.31117373108925	84.58440887971091
113637.4816894531	6.231957820887306	0.1441081410953374	84.58440887971091
113646.5759277344	6.201810980059026	0.1427814209607925	84.58440887971091
113655.6701660156	6.164019246580511	0.03171939325349788	84.58440887971091
113664.7644042969	6.146277325901667	0.0694718656767381	84.58440887971091
113673.8586425781	6.149017947795147	0.009905836433904233	84.58440887971091
113682.9528808594	6.128030553821392	0.03196171915444978	84.58440887971091
113692.0471191406	6.135459081585299	0.009982541208974221	84.58440887971091
113701.1413574219	6.127237215904859	0.003329662201319467	84.58440887971091
113710.2355957031	6.18219389703201	0.04993389995385959	84.58440887971091
113719.3298339844	6.161278624687031	0.0347698712175675	84.58440887971091
113728.4240722656	6.149162191052699	0.03707605107426319	84.58440887971091
113737.5183105469	6.145916717757788	-0.007166432961853108	84.58440887971091
113746.6125488281	6.1378390953349	0.02375304259793654	84.58440887971091
113755.7067871094	6.10920680871091	-0.02844224346980627	84.58440887971091
113764.8010253906	6.097595226478008	-0.032117282226558	84.58440887971091
113773.8952636719	6.080069670685491	-0.04529307010406453	84.58440887971091
113782.9895019531	6.029728773799989	-0.08534155831236087	84.58440887971091
113792.0837402344	6.055620438530498	-0.07131905156139493	84.58440887971091
113801.1779785156	6.024247530013029	-0.06169335018157558	84.58440887971091
113810.2722167969	6.038167004366756	-0.05770860083693871	84.58440887971091
113819.3664550781	6.0261226923612	-0.06222300315135845	84.58440887971091
113828.4606933594	6.056341654818255	-0.0231784178938076	84.58440887971091
113837.5549316406	6.041123991146564	-0.03028783485789502	84.58440887971091
113846.6491699219	6.053745276182327	-0.01180828894636915	84.58440887971091
113855.7434082031	6.074227818754652	0.0001248364723588705	84.58440887971091
113864.8376464844	6.079997549056715	0.02722556263494878	84.58440887971091
113873.9318847656	6.138055460221227	0.05431092147761064	84.58440887971091
113883.0261230469	6.106610430074982	0.07171233083195691	84.58440887971091
113892.1203613281	6.143248217493084	0.06406450618059198	84.58440887971091
113901.2145996094	6.121611728860346	0.07011014239926372	84.58440887971091
113910.3088378906	6.164524097981942	0.08891657493635466	84.58440887971091
113919.4030761719	6.133295432722025	0.07552037521518129	84.58440887971091
113928.4973144531	6.170149585026453	0.09077467541349291	84.58440887971091
113937.5915527344	6.181112072600373	0.09736688027032479	84.58440887971091
113946.6857910156	6.165173192640924	0.1056614213296304	84.58440887971091
113955.7800292969	6.156951326960484	0.06374053352465109	84.58440887971091
113964.8742675781	6.164019246580511	0.07951277049455272	87.96778523489934
113973.9685058594	6.167697449648077	0.07756972263753001	87.96778523489934
113983.0627441406	6.176856896502602	0.07445502858565359	87.96778523489934
113992.1569824219	6.209023142936605	0.1045294310311784	87.96778523489934
114001.2512207031	6.162360449118668	0.07587391850484691	87.96778523489934
114010.3454589844	6.195464276726757	0.06885174985139972	87.96778523489934
114019.4396972656	6.173322936692588	0.07119199123030322	87.96778523489934
114028.5339355469	6.194238209037568	0.06982309507377202	87.96778523489934
114037.6281738281	6.14245487957655	0.04021263962899443	87.96778523489934
114046.7224121094	6.184141181008957	0.04001878636309493	87.96778523489934
114055.8166503906	6.205272818240264	0.07217643693221229	87.96778523489934
114064.9108886719	6.209672237595587	0.08424043474145515	87.96778523489934
114074.0051269531	6.240251808196522	0.08054228654201079	87.96778523489934
114083.0993652344	6.174188396237898	0.06923324942886577	87.96778523489934
114092.1936035156	6.235275415810992	0.04238602993895536	87.96778523489934
114101.2878417969	6.204551601952506	0.07606599313516793	87.96778523489934
114110.3820800781	6.174621126010552	0.02828053085251323	87.96778523489934
114119.4763183594	6.14930643431025	-0.01955687161561851	87.96778523489934
114128.5705566406	6.201017642142492	0.03200337366866532	87.96778523489934
114137.6647949219	6.213855292064583	0.03821098931158276	87.96778523489934
114146.7590332031	6.203686142407197	0.0517304630990009	87.96778523489934
114155.8532714844	6.189550303167142	0.01089240498195641	87.96778523489934
114164.9475097656	6.205633426384143	0.02668786986521202	87.96778523489934
114174.0417480469	6.179669640024858	0.01681231505084134	87.96778523489934
114183.1359863281	6.121972337004225	-0.04040777681088355	87.96778523489934
114192.2302246094	6.157167691846811	-0.03893784505743633	87.96778523489934
114201.3244628906	6.12875177010915	-0.02816066438028755	87.96778523489934
114210.4187011719	6.139497892796743	-0.03788376546541498	87.96778523489934
114219.5129394531	6.126588121245876	-0.04293087999769273	87.96778523489934
114228.6071777344	6.127309337533634	-0.03154529854069128	87.96778523489934
114237.7014160156	6.023814800240374	-0.1020023661801618	87.96778523489934
114246.7956542969	5.949818009116413	-0.1790902497884432	87.96778523489934
114255.8898925781	5.842068295725381	-0.2568711022362649	87.96778523489934
114264.9841308594	5.884475813445547	-0.2456383923359696	87.96778523489934
114274.0783691406	6.322975316402355	0.06262552676241465	87.96778523489934
114283.1726074219	6.899804103351129	0.6299327037163249	87.96778523489934
114292.2668457031	6.623578265139851	0.6838507687880647	87.96778523489934
114301.3610839844	6.396539377753661	0.212284284175212	87.96778523489934
114310.4553222656	6.357737941472285	0.146847500796343	87.96778523489934
114319.5495605469	6.335235993294239	0.1520444322739324	87.96778523489934
114328.6437988281	6.351463359768792	0.08766080367094753	87.96778523489934
114337.7380371094	6.319441356592341	0.1259038890494437	87.96778523489934
114346.8322753906	6.273139270918283	0.02843015755168004	87.96778523489934
114355.9265136719	6.259003431678228	0.01883884700604225	87.96778523489934
114365.0207519531	6.240756659597952	0.003750277010272079	87.96778523489934
114374.1149902344	6.211186791799879	-0.03249624383712056	87.96778523489934
114383.2092285156	6.206859494073331	-0.03154156298568515	87.96778523489934
114392.3034667969	6.192651533204501	-0.05124284784313522	87.96778523489934
114401.3977050781	6.124640837268929	-0.07509852816662914	87.96778523489934
114410.4919433594	6.175775072070965	-0.09722135903447429	87.96778523489934
114419.5861816406	6.175847193699741	-0.0271665777616166	87.96778523489934
114428.6804199219	6.201810980059026	-0.03401165917652362	87.96778523489934
114437.7746582031	6.151181596658421	-0.04196204577382533	87.96778523489934
114446.8688964844	6.170221706655229	-0.05051135370890553	87.96778523489934
114455.9631347656	6.142815487720429	-0.05562256007002329	87.96778523489934
114465.0573730469	6.129400864768132	-0.05504905266258413	87.96778523489934
114474.1516113281	6.155148286241089	-0.06374534532853976	87.96778523489934
114483.2458496094	6.107980741021722	-0.03573655477218583	87.96778523489934
114492.3400878906	6.137045757418366	-0.07429610584109657	87.96778523489934
114501.4343261719	6.118005647421557	-0.03036594127856229	87.96778523489934
114510.5285644531	6.126227513101997	-0.04289849738104737	87.96778523489934
114519.6228027344	6.063409574438283	-0.07056441825498484	87.96778523489934
114528.7170410156	6.076968440648132	-0.07260500179087565	87.96778523489934
114537.8112792969	6.041123991146564	-0.08600371955563047	87.96778523489934
114546.9055175781	6.021218421604446	-0.08290013699995349	87.96778523489934
114555.9997558594	6.042205815578201	-0.09369403326007766	87.96778523489934
114565.0939941406	6.06088531743113	-0.02590707688236684	87.96778523489934
114574.1882324219	6.0785551164812	-0.02496291662752339	87.96778523489934
114583.2824707031	6.112524403634597	0.02042533930753663	87.96778523489934
114592.3767089844	6.155148286241089	0.06569271773658497	87.96778523489934
114601.4709472656	6.105672848900897	0.05058161614379737	87.96778523489934
114610.5651855469	6.129689351283235	0.04045857805157682	87.96778523489934
114619.6594238281	6.104663146098035	0.04283908296516761	87.96778523489934
114628.7536621094	6.125001445412808	0.05282965193116427	89.156539089425
114637.8479003906	6.091969739433496	0.03382792326959561	89.156539089425
114646.9421386719	6.131997243404061	0.05716272731219875	89.156539089425
114656.0363769531	6.111370457574184	0.05916903804782289	89.156539089425
114665.1306152344	6.091969739433496	0.045791477906874	89.156539089425
114674.2248535156	6.093051563865133	0.02849344072424828	89.156539089425
114683.3190917969	6.022732975808737	0.01222497951867327	89.156539089425
114692.4133300781	6.041845207434322	-0.02400478159193734	89.156539089425
114701.5075683594	6.052879816637018	0.01979731181281642	89.156539089425
114710.6018066406	6.08129573837468	0.04900015759570695	89.156539089425
114719.6960449219	6.04033065323003	0.0344676009345373	89.156539089425
114728.7902832031	6.072641142921585	0.06152496662914075	89.156539089425
114737.8845214844	6.065717466559109	0.06571281810439686	89.156539089425
114746.9787597656	6.072424778035257	0.08499696810596594	89.156539089425
114756.0729980469	6.098460686023318	0.0891811699827772	89.156539089425
114765.1672363281	6.105312240757018	0.1277489142584296	89.156539089425
114774.2614746094	6.095720064129838	0.1101769405976701	89.156539089425
114783.3557128906	6.093556415266564	0.1076002415229483	89.156539089425
114792.4499511719	6.123414769579741	0.1322076590393014	89.156539089425
114801.5441894531	6.096657645303923	0.1251768480452785	89.156539089425
114810.6384277344	6.12103475583014	0.128262601802316	89.156539089425
114819.7326660156	6.099542510454954	0.1247906037803394	89.156539089425
114828.8269042969	6.12103475583014	0.1324362405206907	89.156539089425
114837.9211425781	6.07905996788263	0.1113466225054781	89.156539089425
114847.0153808594	6.118510498822987	0.1184886566459965	89.156539089425
114856.1096191406	6.124352350753826	0.1418326826234652	89.156539089425
114865.2038574219	6.154571313210883	0.1618387318050711	89.156539089425
114874.2980957031	6.202532196346784	0.1902469785321161	89.156539089425
114883.3923339844	6.182915113319768	0.2070560511125959	89.156539089425
114892.4865722656	6.218759562821337	0.1879881673821776	89.156539089425
114901.5808105469	6.192218803431846	0.1982625120436923	89.156539089425
114910.6750488281	6.187891505705298	0.1672971893432312	89.156539089425
114919.7692871094	6.067881115422383	0.08809903817036288	89.156539089425
114928.8635253906	5.969435092143428	-0.01805044700423017	89.156539089425
114937.9577636719	5.845890742050498	-0.1314849567260779	89.156539089425
114947.0520019531	6.00246679812274	-0.06260177242254945	89.156539089425
114956.1462402344	6.572371908709039	0.3519831911807861	89.156539089425
114965.2404785156	6.749069899209727	0.7563688903285963	89.156539089425
114974.3347167969	6.416012217523124	0.47900019784514	89.156539089425
114983.4289550781	6.244506984294294	0.1390539905813763	89.156539089425
114992.5231933594	6.147719758477183	0.08814512789126194	89.156539089425
115001.6174316406	6.024968746300787	-0.0504657832675077	89.156539089425
115010.7116699219	6.013068677552782	-0.09428195576545394	89.156539089425
115019.8059082031	5.990566729374734	-0.08187935301312363	89.156539089425
115028.9001464844	6.051653748947829	-0.05614067480850261	89.156539089425
115037.9943847656	6.044946437471681	-0.01041935512478528	89.156539089425
115047.0886230469	6.099037659053524	0.008138547118382123	89.156539089425
115056.1828613281	6.101706159318228	0.04303868184697492	89.156539089425
115065.2770996094	6.101129186288022	0.04311064051823989	89.156539089425
115074.3713378906	6.10783649776417	0.03448689348509158	89.156539089425
115083.4655761719	6.073939332239549	0.03695413552497368	89.156539089425
115092.5598144531	6.091248523145739	0.01168492713380739	89.156539089425
115101.6540527344	6.073001751065464	0.03124816361720425	89.156539089425
115110.7482910156	6.087137590305519	0.02305875640742422	89.156539089425
115119.8425292969	6.062832601408076	0.01756010679294361	89.156539089425
115128.9367675781	6.079709062541612	0.02452310076909193	89.156539089425
115138.0310058594	6.056702262962134	0.01210200861550364	89.156539089425
115147.1252441406	6.058721668567856	0.01641543112858173	89.156539089425
115156.2194824219	6.067736872164831	0.01174984372238426	89.156539089425
115165.3137207031	6.062471993264198	0.03291603424674475	89.156539089425
115174.4079589844	6.058865911825408	0.01292649915652215	89.156539089425
115183.5021972656	6.090310941971653	0.03950433891182323	89.156539089425
115192.5964355469	6.125362053556687	0.07786372069146541	89.156539089425
115201.6906738281	6.112163795490718	0.08626233204686468	89.156539089425
115210.7849121094	6.154499191582107	0.1116524308305203	89.156539089425
115219.8791503906	6.152984637377815	0.1256683741229571	89.156539089425
115228.9733886719	6.197916412105133	0.1443775349851749	89.156539089425
115238.0676269531	6.187891505705298	0.1514111419857576	89.156539089425
115247.1618652344	6.213278319034377	0.1533211408178949	89.156539089425
115256.2561035156	6.197916412105133	0.1442492728773953	89.156539089425
115265.3503417969	6.210681940398448	0.1410305045590937	89.156539089425
115274.4445800781	6.220057752139301	0.1386777486890025	89.156539089425
115283.5388183594	6.195969128128187	0.1308502882626466	89.156539089425
115292.6330566406	6.21955290073787	0.1110697136368998	89.156539089425
115301.7272949219	6.197339439074927	0.1184486582261535	89.156539089425
115310.8215332031	6.203686142407197	0.09511652762268033	89.156539089425
115319.9157714844	6.175630828813413	0.07710110150045092	89.156539089425
115329.0100097656	6.196185493014514	0.07793189130230224	89.156539089425
115338.1042480469	6.171519895973193	0.06201589044141329	89.156539089425
115347.1984863281	6.172024747374624	0.05620909294509322	89.156539089425
115356.2927246094	6.175847193699741	0.04363686526660526	89.156539089425
115365.3869628906	6.188829086879384	0.06637422148255814	89.156539089425
115374.4812011719	6.1720968690034	0.04635396032029122	89.156539089425
115383.5754394531	6.175053855783207	0.04009212602843863	89.156539089425
115392.6696777344	6.18168904563058	0.04521393900321761	89.156539089425
115401.7639160156	6.159187097452533	0.03070217039559756	89.156539089425
115410.8581542969	6.190704249227554	0.0343795894271425	89.156539089425
115419.9523925781	6.171159287829314	0.04070700917349452	89.156539089425
115429.0466308594	6.17483749089688	0.02695856153395301	89.156539089425
115438.1408691406	6.163947124951736	0.01611866133707051	89.156539089425
115447.2351074219	6.191713952030415	0.03542814224085969	89.156539089425
115456.3293457031	6.179597518396082	0.0305989109997785	89.156539089425
115465.4235839844	6.196618222787169	0.03569177467857469	89.156539089425
115474.5178222656	6.206787372444556	0.04165941501980824	89.156539089425
115483.6120605469	6.183492086349975	0.03544358942988279	89.156539089425
115492.7062988281	6.203397655892093	0.01993687542268095	89.156539089425
115501.8005371094	6.188973330136935	0.03148679766806026	89.156539089425
115510.8947753906	6.200584912369838	0.02069156695738429	89.156539089425
115519.9890136719	6.180390856312616	0.01106461271620225	89.156539089425
115529.0832519531	6.212484981117843	0.02285029745773065	89.156539089425
115538.1774902344	6.212484981117843	0.02894719210692514	89.156539089425
115547.2717285156	6.198060655362685	0.02548681854339892	89.156539089425
115556.3659667969	6.201089763771268	-0.001030933991881545	89.156539089425
115565.4602050781	6.169788976882574	0.001510535939854752	89.156539089425
115574.5544433594	6.054466492470085	-0.09403607388324348	89.156539089425
115583.6486816406	5.903804409957458	-0.2280253167376027	89.156539089425
115592.7429199219	5.815599657964667	-0.3215286314286723	89.156539089425
115601.8371582031	5.999293446456605	-0.2280920283102322	89.156539089425
115610.9313964844	6.684953771228048	0.2924331416488695	89.156539089425
115620.0256347656	7.039647941547387	0.8247951406263265	89.156539089425
115629.1198730469	6.740126817241528	0.6620870868714051	89.156539089425
115638.2141113281	6.332206884885656	0.1359340070273527	89.156539089425
115647.3083496094	6.275158676524005	-0.0303850613364565	89.156539089425
115656.4025878906	6.226188090585243	-0.02574105578539828	89.156539089425
115665.4968261719	6.226260212214019	-0.06155770040904254	89.156539089425
115674.5910644531	6.228712347592396	-0.05386834595657777	89.156539089425
115683.6853027344	6.216668035586839	-0.04690661565738338	89.156539089425
115692.7795410156	6.246526389900016	-0.05122155518129541	89.156539089425
115701.8737792969	6.219769265624198	-0.03114261872779915	89.156539089425
115710.9680175781	6.247608214331653	-0.04522496395289447	89.156539089425
115720.0622558594	6.187603019190195	-0.05304153647168965	89.156539089425
115729.1564941406	6.181977532145683	-0.08774799071691108	89.156539089425
115738.2507324219	6.150099772226784	-0.1047692659958577	89.156539089425
115747.3449707031	6.155292529498641	-0.09200219225390141	89.156539089425
115756.4392089844	6.142743366091653	-0.1081206212961657	89.156539089425
115765.5334472656	6.112308038748269	-0.1009692388027494	89.156539089425
115774.6276855469	6.091464888032066	-0.1402540728362821	89.156539089425
115783.7219238281	6.095431577614734	-0.1179083402498593	89.156539089425
115792.8161621094	6.085767279358779	-0.1120182351848929	89.156539089425
115801.9104003906	6.060813195802354	-0.1256741835801995	89.156539089425
115811.0046386719	6.085695157730003	-0.1038733747155182	89.156539089425
115820.0988769531	6.072352656406482	-0.09058326319974985	89.156539089425
115829.1931152344	6.097090375076578	-0.06944838750729243	89.156539089425
115838.2873535156	6.115192903899301	-0.04536973398300538	89.156539089425
115847.3815917969	6.16250469237622	0.007783791029202947	89.156539089425
115856.4758300781	6.157816786505793	0.01922116713436365	89.156539089425
115865.5700683594	6.188540600364281	0.0378295389136523	89.156539089425
115874.6643066406	6.206354642671901	0.06145021839893095	89.156539089425
115883.7585449219	6.198709750021667	0.06675476549884107	89.156539089425
115892.8527832031	6.226909306873001	0.06784151927404167	89.156539089425
115901.9470214844	6.22092321168461	0.08601493582165232	89.156539089425
115911.0412597656	6.225611117555037	0.07582393770101084	89.156539089425
115920.1354980469	6.209672237595587	0.06390739146811464	89.156539089425
115929.2297363281	6.220201995396852	0.06823930893699789	89.156539089425
115938.3239746094	6.187819384076522	0.04537349388634876	89.156539089425
115947.4182128906	6.209600115966811	0.04768186849162039	91.63310961968679
115956.5124511719	6.214648629981117	0.05859316201039647	91.63310961968679
115965.6066894531	6.190415762712451	0.05240377674687301	91.63310961968679
115974.7009277344	6.188973330136935	0.02439455936696019	91.63310961968679
115983.7951660156	6.186809681273661	0.03892355449984647	91.63310961968679
115992.8894042969	6.168274422678283	0.02258118951272372	91.63310961968679
116001.9836425781	6.139858500940622	-0.004223781071734503	91.63310961968679
116011.0778808594	6.162865300520099	0.005624685455999054	91.63310961968679
116020.1721191406	6.141661541660016	0.00832463618766034	91.63310961968679
116029.2663574219	6.160701651656825	0.01094981104276981	91.63310961968679
116038.3605957031	6.160124678626619	0.02061701281441908	91.63310961968679
116047.4548339844	6.196473979529618	0.0484001053786608	91.63310961968679
116056.5490722656	6.181833288888131	0.05078391603087035	91.63310961968679
116065.6433105469	6.209600115966811	0.05923144017810347	91.63310961968679
116074.7375488281	6.224673536380951	0.07832570671765674	91.63310961968679
116083.8317871094	6.2245292931234	0.08585297682465665	91.63310961968679
116092.9260253906	6.255902201640869	0.08867026721472078	91.63310961968679
116102.0202636719	6.281721744742602	0.124040130645483	91.63310961968679
116111.1145019531	6.281000528454844	0.1316036838200692	91.63310961968679
116120.2087402344	6.270759257168682	0.1208006870529864	91.63310961968679
116129.3029785156	6.304223692920648	0.1335717595873044	91.63310961968679
116138.3972167969	6.292612110687746	0.1357071810639672	91.63310961968679
116147.4914550781	6.320595302652754	0.138257393650179	91.63310961968679
116156.5856933594	6.308046139245765	0.135957711035655	91.63310961968679
116165.6799316406	6.29253998905897	0.1169953283701421	91.63310961968679
116174.7741699219	6.286481772241804	0.09101895158150358	91.63310961968679
116183.8684082031	6.308190382503317	0.1095888699238193	91.63310961968679
116192.9626464844	6.311652220684555	0.1114578606828374	91.63310961968679
116202.0568847656	6.273788365577265	0.08612679592345343	91.63310961968679
116211.1511230469	6.280279312167086	0.06208621359076987	91.63310961968679
116220.2453613281	6.207724953618641	0.03286789033050476	91.63310961968679
116229.3395996094	6.139570014425519	-0.04669422886270627	91.63310961968679
116238.4338378906	5.81415722538915	-0.2465501733085159	91.63310961968679
116247.5280761719	5.900703179920099	-0.3520015836621697	91.63310961968679
116256.6223144531	6.41146855491025	0.06740992481073554	91.63310961968679
116265.7165527344	7.057317740597456	0.7164975154212667	91.63310961968679
116274.8107910156	6.846217733170716	0.7887976074632309	91.63310961968679
116283.9050292969	6.487268386753605	0.3097480297608038	91.63310961968679
116292.9992675781	6.303358233375339	0.02361326126440658	91.63310961968679
116302.0935058594	6.1789484237371	-0.04185985274091116	91.63310961968679
116311.1877441406	6.155076164612313	-0.155806941153008	91.63310961968679
116320.2819824219	6.136036054615505	-0.1074033175210492	91.63310961968679
116329.3762207031	6.155076164612313	-0.1167804919476204	91.63310961968679
116338.4704589844	6.138704554880209	-0.1037024669370626	91.63310961968679
116347.5646972656	6.167048354989094	-0.07228728730877614	91.63310961968679
116356.6589355469	6.171952625745848	-0.07164607294590888	91.63310961968679
116365.7531738281	6.170654436427884	-0.03102189682430392	91.63310961968679
116374.8474121094	6.172313233889727	-0.06322932250518971	91.63310961968679
116383.9416503906	6.1789484237371	-0.01664729062453787	91.63310961968679
116393.0358886719	6.163802881694184	-0.04054170090651172	91.63310961968679
116402.1301269531	6.147503393590855	-0.0408189637583696	91.63310961968679
116411.2243652344	6.165461679156027	-0.03148227261371784	91.63310961968679
116420.3186035156	6.136757270903263	-0.03313441283666339	91.63310961968679
116429.4128417969	6.153850096923125	-0.02659088065090271	91.63310961968679
116438.5070800781	6.134882108555092	-0.0297916993133999	91.63310961968679
116447.6013183594	6.148440974764941	-0.01042130979554044	91.63310961968679
116456.6955566406	6.1128128901497	-0.0340995291281256	91.63310961968679
116465.7897949219	6.114760174126646	-0.02740124839027483	91.63310961968679
116474.8840332031	6.083243022351626	-0.0469499067544313	91.63310961968679
116483.9782714844	6.057928330651323	-0.0556412545145861	91.63310961968679
116493.0725097656	6.078482994852424	-0.05442236004912811	91.63310961968679
116502.1667480469	6.059947736257045	-0.02830123669655431	91.63310961968679
116511.2609863281	6.095143091099631	-0.02044749151027745	91.63310961968679
116520.3552246094	6.101561916060676	0.01418742050769096	91.63310961968679
116529.4494628906	6.137478487191021	0.04653790881006348	91.63310961968679
116538.5437011719	6.124785080526481	0.04670861804298482	91.63310961968679
116547.6379394531	6.153561610408022	0.07185720890119882	91.63310961968679
116556.7321777344	6.157961029763345	0.07563193433394677	91.63310961968679
116565.8264160156	6.16300954377765	0.09540179003035457	91.63310961968679
116574.9206542969	6.160485286770498	0.08778773370301998	91.63310961968679
116584.0148925781	6.181400559115477	0.1216036940941376	91.63310961968679
116593.1091308594	6.174116274609122	0.1210624980223307	91.63310961968679
116602.2033691406	6.164019246580511	0.1065474133894995	91.63310961968679
116611.2976074219	6.170365949912781	0.1135083351072898	91.63310961968679
116620.3918457031	6.12824691870772	0.0886476610517693	91.63310961968679
116629.4860839844	6.137262122304693	0.07760712027431446	91.63310961968679
116638.5803222656	6.150388258741887	0.09348606176409736	91.63310961968679
116647.6745605469	6.20173885843025	0.1386112565470697	91.63310961968679
116656.7687988281	6.175847193699741	0.1388390678406702	91.63310961968679
116665.8630371094	6.203758264035972	0.1361717074560475	91.63310961968679
116674.9572753906	6.207364345474762	0.1520553948043517	91.63310961968679
116684.0515136719	6.220634725169507	0.1593436711573228	91.63310961968679
116693.1457519531	6.251214295770443	0.1700209599418039	91.63310961968679
116702.2399902344	6.226332333842795	0.1759708691724716	91.63310961968679
116711.3342285156	6.285832677582822	0.1727411851816414	91.63310961968679
116720.4284667969	6.339707534278338	0.240887711563706	91.63310961968679
116729.5227050781	6.429498962104197	0.2988608808545848	91.63310961968679
116738.6169433594	6.409521270933303	0.3023474747642246	91.63310961968679
116747.7111816406	6.340068142422217	0.2326723543162283	91.63310961968679
116756.8054199219	6.260085256109865	0.1216562218144131	91.63310961968679
116765.8996582031	6.216956522101942	0.08067443221856438	91.63310961968679
116774.9938964844	6.198853993279219	0.03841601833842161	91.63310961968679
116784.0881347656	6.217317130245821	0.056411177532344	91.63310961968679
116793.1823730469	6.192218803431846	0.04961781949102896	91.63310961968679
116802.2766113281	6.1789484237371	0.02098677962482557	91.63310961968679
116811.3708496094	6.192579411575725	0.03339100880320033	91.63310961968679
116820.4650878906	6.166471381958888	0.02502558130568165	91.63310961968679
116829.5593261719	6.198565506764115	0.0285328661287989	91.63310961968679
116838.6535644531	6.195897006499411	0.04933713395909327	91.63310961968679
116847.7478027344	6.229866293652808	0.06384619012888615	91.63310961968679
116856.8420410156	6.203758264035972	0.06048889311320095	91.63310961968679
116865.9362792969	6.223735955206866	0.0574883454076984	91.63310961968679
116875.0305175781	6.206282521043125	0.05348647436668916	91.63310961968679
116884.1247558594	6.197267317446151	0.04343306036186197	91.63310961968679
116893.2189941406	6.177650234419136	0.01882535521584016	91.63310961968679
116902.3132324219	6.04581189701699	-0.04981662442890877	91.63310961968679
116911.4074707031	5.868969663258751	-0.2231007002421646	91.63310961968679
116920.5017089844	6.124135985867499	-0.1411000855074461	91.63310961968679
116929.5959472656	6.795516228141335	0.432286881403214	91.63310961968679
116938.6901855469	6.985917328109423	0.8382148960776454	91.63310961968679
116947.7844238281	6.691661082704197	0.5782884537348261	91.63310961968679
116956.8786621094	6.439884476647912	0.202835665305181	91.63310961968679
116965.9729003906	6.316412248183758	0.06503775554640277	91.63310961968679
116975.0671386719	6.192218803431846	-0.06771719432173358	91.63310961968679
116984.1613769531	6.190992735742658	-0.1129228752654575	91.63310961968679
